Time,ECG
2022-07-08 17:01:29.876170,10228
2022-07-08 17:01:29.878737,11443
2022-07-08 17:01:29.880493,12222
2022-07-08 17:01:29.882072,11799
2022-07-08 17:01:29.883636,10548
2022-07-08 17:01:29.885200,10026
2022-07-08 17:01:29.886760,10502
2022-07-08 17:01:29.888193,10801
2022-07-08 17:01:29.889620,10808
2022-07-08 17:01:29.891302,10992
2022-07-08 17:01:29.892700,11171
2022-07-08 17:01:29.894048,11234
2022-07-08 17:01:29.895401,11298
2022-07-08 17:01:29.896746,11395
2022-07-08 17:01:29.898089,11538
2022-07-08 17:01:29.899427,11651
2022-07-08 17:01:29.900829,11712
2022-07-08 17:01:29.902211,11776
2022-07-08 17:01:29.903771,11799
2022-07-08 17:01:29.905247,11830
2022-07-08 17:01:29.906708,11944
2022-07-08 17:01:29.908180,12043
2022-07-08 17:01:29.909636,12084
2022-07-08 17:01:29.912417,12098
2022-07-08 17:01:29.915312,12086
2022-07-08 17:01:29.917417,12120
2022-07-08 17:01:29.918914,12227
2022-07-08 17:01:29.920283,12322
2022-07-08 17:01:29.921636,12352
2022-07-08 17:01:29.923110,12333
2022-07-08 17:01:30.055668,12297
2022-07-08 17:01:30.058144,12295
2022-07-08 17:01:30.060209,12352
2022-07-08 17:01:30.061920,12401
2022-07-08 17:01:30.063631,12363
2022-07-08 17:01:30.065332,12173
2022-07-08 17:01:30.066933,11903
2022-07-08 17:01:30.068446,11744
2022-07-08 17:01:30.070134,11676
2022-07-08 17:01:30.071659,11620
2022-07-08 17:01:30.073072,11527
2022-07-08 17:01:30.074660,11277
2022-07-08 17:01:30.076177,11028
2022-07-08 17:01:30.077747,10985
2022-07-08 17:01:30.079224,11005
2022-07-08 17:01:30.080662,11028
2022-07-08 17:01:30.082198,11005
2022-07-08 17:01:30.083679,10804
2022-07-08 17:01:30.085066,10620
2022-07-08 17:01:30.086464,10615
2022-07-08 17:01:30.087850,10634
2022-07-08 17:01:30.089241,10615
2022-07-08 17:01:30.091644,10534
2022-07-08 17:01:30.093363,10389
2022-07-08 17:01:30.094855,10300
2022-07-08 17:01:30.096294,10287
2022-07-08 17:01:30.097654,10282
2022-07-08 17:01:30.099001,10257
2022-07-08 17:01:30.100623,10160
2022-07-08 17:01:30.102073,10106
2022-07-08 17:01:30.326072,10126
2022-07-08 17:01:30.328516,9940
2022-07-08 17:01:30.330531,9734
2022-07-08 17:01:30.332194,9795
2022-07-08 17:01:30.334052,9707
2022-07-08 17:01:30.336124,9419
2022-07-08 17:01:30.337968,9378
2022-07-08 17:01:30.340208,9351
2022-07-08 17:01:30.341782,9185
2022-07-08 17:01:30.343270,9176
2022-07-08 17:01:30.344960,9088
2022-07-08 17:01:30.346904,8818
2022-07-08 17:01:30.348476,8718
2022-07-08 17:01:30.349956,8725
2022-07-08 17:01:30.351564,8689
2022-07-08 17:01:30.353124,8648
2022-07-08 17:01:30.354569,8528
2022-07-08 17:01:30.356009,8381
2022-07-08 17:01:30.357819,8329
2022-07-08 17:01:30.360065,8304
2022-07-08 17:01:30.363395,8277
2022-07-08 17:01:30.365933,8238
2022-07-08 17:01:30.368030,8102
2022-07-08 17:01:30.369580,7968
2022-07-08 17:01:30.371052,7975
2022-07-08 17:01:30.372506,7968
2022-07-08 17:01:30.373964,7860
2022-07-08 17:01:30.375595,7748
2022-07-08 17:01:30.377370,7615
2022-07-08 17:01:30.379870,7492
2022-07-08 17:01:30.550788,7445
2022-07-08 17:01:30.553151,7408
2022-07-08 17:01:30.555241,7424
2022-07-08 17:01:30.556928,7381
2022-07-08 17:01:30.558555,7139
2022-07-08 17:01:30.560215,6980
2022-07-08 17:01:30.561742,7016
2022-07-08 17:01:30.563196,7001
2022-07-08 17:01:30.564768,6905
2022-07-08 17:01:30.566202,6790
2022-07-08 17:01:30.567624,6588
2022-07-08 17:01:30.569013,6420
2022-07-08 17:01:30.570590,6389
2022-07-08 17:01:30.572069,6370
2022-07-08 17:01:30.573528,6346
2022-07-08 17:01:30.574991,6280
2022-07-08 17:01:30.576596,6112
2022-07-08 17:01:30.579455,6015
2022-07-08 17:01:30.581598,6001
2022-07-08 17:01:30.583122,5956
2022-07-08 17:01:30.584587,5929
2022-07-08 17:01:30.587543,5851
2022-07-08 17:01:30.590167,5704
2022-07-08 17:01:30.591645,5641
2022-07-08 17:01:30.593107,5629
2022-07-08 17:01:30.594867,5589
2022-07-08 17:01:30.596794,5561
2022-07-08 17:01:30.598997,5491
2022-07-08 17:01:30.600432,5382
2022-07-08 17:01:30.601954,5328
2022-07-08 17:01:30.819847,5274
2022-07-08 17:01:30.822330,5126
2022-07-08 17:01:30.824372,5070
2022-07-08 17:01:30.826101,5482
2022-07-08 17:01:30.827770,6370
2022-07-08 17:01:30.829468,7069
2022-07-08 17:01:30.831421,6620
2022-07-08 17:01:30.833015,5212
2022-07-08 17:01:30.834861,4383
2022-07-08 17:01:30.836535,4521
2022-07-08 17:01:30.838359,4616
2022-07-08 17:01:30.840800,4433
2022-07-08 17:01:30.842281,4360
2022-07-08 17:01:30.843808,4410
2022-07-08 17:01:30.845322,4378
2022-07-08 17:01:30.847131,4242
2022-07-08 17:01:30.848581,4174
2022-07-08 17:01:30.849970,4188
2022-07-08 17:01:30.851362,4181
2022-07-08 17:01:30.852727,4179
2022-07-08 17:01:30.854104,4177
2022-07-08 17:01:30.856437,4127
2022-07-08 17:01:30.859062,4079
2022-07-08 17:01:30.862104,4079
2022-07-08 17:01:30.864768,4097
2022-07-08 17:01:30.866303,4106
2022-07-08 17:01:30.867689,4099
2022-07-08 17:01:30.869058,4079
2022-07-08 17:01:30.870700,4056
2022-07-08 17:01:30.872139,4075
2022-07-08 17:01:31.000353,4113
2022-07-08 17:01:31.002702,4143
2022-07-08 17:01:31.004290,4147
2022-07-08 17:01:31.005887,4120
2022-07-08 17:01:31.007571,4086
2022-07-08 17:01:31.009270,4072
2022-07-08 17:01:31.010981,4065
2022-07-08 17:01:31.012480,4020
2022-07-08 17:01:31.014102,3862
2022-07-08 17:01:31.015553,3642
2022-07-08 17:01:31.016928,3472
2022-07-08 17:01:31.018310,3340
2022-07-08 17:01:31.019680,3234
2022-07-08 17:01:31.021132,3091
2022-07-08 17:01:31.022508,2896
2022-07-08 17:01:31.023929,2780
2022-07-08 17:01:31.025532,2751
2022-07-08 17:01:31.027051,2726
2022-07-08 17:01:31.028414,2712
2022-07-08 17:01:31.029790,2697
2022-07-08 17:01:31.031156,2660
2022-07-08 17:01:31.032532,2624
2022-07-08 17:01:31.033916,2610
2022-07-08 17:01:31.036308,2613
2022-07-08 17:01:31.038453,2617
2022-07-08 17:01:31.040127,2608
2022-07-08 17:01:31.041601,2583
2022-07-08 17:01:31.042988,2556
2022-07-08 17:01:31.045094,2542
2022-07-08 17:01:31.047530,2542
2022-07-08 17:01:31.225723,2547
2022-07-08 17:01:31.228215,2529
2022-07-08 17:01:31.230367,2495
2022-07-08 17:01:31.232053,2472
2022-07-08 17:01:31.233776,2450
2022-07-08 17:01:31.235473,2438
2022-07-08 17:01:31.237113,2438
2022-07-08 17:01:31.238571,2377
2022-07-08 17:01:31.240195,2298
2022-07-08 17:01:31.241579,2275
2022-07-08 17:01:31.242968,2270
2022-07-08 17:01:31.244337,2221
2022-07-08 17:01:31.245711,2116
2022-07-08 17:01:31.247072,2028
2022-07-08 17:01:31.248436,1989
2022-07-08 17:01:31.249885,1933
2022-07-08 17:01:31.251492,1874
2022-07-08 17:01:31.253101,1874
2022-07-08 17:01:31.254617,1885
2022-07-08 17:01:31.256062,1863
2022-07-08 17:01:31.257533,1849
2022-07-08 17:01:31.258989,1847
2022-07-08 17:01:31.261701,1824
2022-07-08 17:01:31.264071,1804
2022-07-08 17:01:31.266089,1770
2022-07-08 17:01:31.267593,1720
2022-07-08 17:01:31.269078,1706
2022-07-08 17:01:31.270566,1708
2022-07-08 17:01:31.272022,1688
2022-07-08 17:01:31.273413,1686
2022-07-08 17:01:31.451128,1683
2022-07-08 17:01:31.453523,1661
2022-07-08 17:01:31.455532,1656
2022-07-08 17:01:31.457228,1656
2022-07-08 17:01:31.458882,1638
2022-07-08 17:01:31.460563,1611
2022-07-08 17:01:31.462242,1536
2022-07-08 17:01:31.463874,1448
2022-07-08 17:01:31.465543,1400
2022-07-08 17:01:31.467075,1366
2022-07-08 17:01:31.468511,1343
2022-07-08 17:01:31.469933,1337
2022-07-08 17:01:31.471310,1300
2022-07-08 17:01:31.472662,1251
2022-07-08 17:01:31.474054,1246
2022-07-08 17:01:31.475477,1257
2022-07-08 17:01:31.477047,1228
2022-07-08 17:01:31.478524,1183
2022-07-08 17:01:31.479915,1142
2022-07-08 17:01:31.481313,1135
2022-07-08 17:01:31.482707,1153
2022-07-08 17:01:31.484091,1146
2022-07-08 17:01:31.485468,1142
2022-07-08 17:01:31.487856,1153
2022-07-08 17:01:31.490268,1144
2022-07-08 17:01:31.491816,1135
2022-07-08 17:01:31.493417,1144
2022-07-08 17:01:31.495271,1142
2022-07-08 17:01:31.497525,1149
2022-07-08 17:01:31.499047,1174
2022-07-08 17:01:31.764843,1192
2022-07-08 17:01:31.767163,1196
2022-07-08 17:01:31.769174,1196
2022-07-08 17:01:31.770838,1203
2022-07-08 17:01:31.772476,1198
2022-07-08 17:01:31.774154,1153
2022-07-08 17:01:31.775899,1085
2022-07-08 17:01:31.777544,1062
2022-07-08 17:01:31.779682,1090
2022-07-08 17:01:31.781218,1085
2022-07-08 17:01:31.782579,1060
2022-07-08 17:01:31.784017,1044
2022-07-08 17:01:31.785382,1006
2022-07-08 17:01:31.786734,999
2022-07-08 17:01:31.788158,985
2022-07-08 17:01:31.789566,854
2022-07-08 17:01:31.791075,863
2022-07-08 17:01:31.792525,1398
2022-07-08 17:01:31.794479,2295
2022-07-08 17:01:31.796851,2774
2022-07-08 17:01:31.798790,2182
2022-07-08 17:01:31.801859,1004
2022-07-08 17:01:31.803562,480
2022-07-08 17:01:31.805203,729
2022-07-08 17:01:31.806745,858
2022-07-08 17:01:31.808272,754
2022-07-08 17:01:31.810005,793
2022-07-08 17:01:31.811958,858
2022-07-08 17:01:31.814533,824
2022-07-08 17:01:31.816063,829
2022-07-08 17:01:31.945035,874
2022-07-08 17:01:31.947506,902
2022-07-08 17:01:31.949482,922
2022-07-08 17:01:31.951157,931
2022-07-08 17:01:31.952824,924
2022-07-08 17:01:31.954505,899
2022-07-08 17:01:31.956231,899
2022-07-08 17:01:31.957882,945
2022-07-08 17:01:31.959508,981
2022-07-08 17:01:31.960997,992
2022-07-08 17:01:31.962395,997
2022-07-08 17:01:31.963784,1006
2022-07-08 17:01:31.965180,1049
2022-07-08 17:01:31.966573,1108
2022-07-08 17:01:31.967957,1158
2022-07-08 17:01:31.969343,1196
2022-07-08 17:01:31.970891,1201
2022-07-08 17:01:31.972379,1192
2022-07-08 17:01:31.973844,1210
2022-07-08 17:01:31.975436,1239
2022-07-08 17:01:31.976913,1232
2022-07-08 17:01:31.978605,1155
2022-07-08 17:01:31.981729,1031
2022-07-08 17:01:31.983343,915
2022-07-08 17:01:31.985102,815
2022-07-08 17:01:31.986569,722
2022-07-08 17:01:31.988090,632
2022-07-08 17:01:31.989551,550
2022-07-08 17:01:31.990912,482
2022-07-08 17:01:31.992261,448
2022-07-08 17:01:32.126122,457
2022-07-08 17:01:32.128617,471
2022-07-08 17:01:32.130630,475
2022-07-08 17:01:32.132307,460
2022-07-08 17:01:32.133998,410
2022-07-08 17:01:32.135675,394
2022-07-08 17:01:32.137390,432
2022-07-08 17:01:32.138931,462
2022-07-08 17:01:32.140556,473
2022-07-08 17:01:32.142182,462
2022-07-08 17:01:32.143599,419
2022-07-08 17:01:32.144981,414
2022-07-08 17:01:32.146371,451
2022-07-08 17:01:32.147763,480
2022-07-08 17:01:32.149151,489
2022-07-08 17:01:32.150547,480
2022-07-08 17:01:32.152075,460
2022-07-08 17:01:32.153515,460
2022-07-08 17:01:32.154905,489
2022-07-08 17:01:32.156288,507
2022-07-08 17:01:32.157684,514
2022-07-08 17:01:32.159073,516
2022-07-08 17:01:32.160448,469
2022-07-08 17:01:32.163471,389
2022-07-08 17:01:32.165168,371
2022-07-08 17:01:32.166722,403
2022-07-08 17:01:32.168204,403
2022-07-08 17:01:32.169606,376
2022-07-08 17:01:32.171037,371
2022-07-08 17:01:32.172474,396
2022-07-08 17:01:32.440111,417
2022-07-08 17:01:32.442528,432
2022-07-08 17:01:32.444512,430
2022-07-08 17:01:32.446129,380
2022-07-08 17:01:32.447704,342
2022-07-08 17:01:32.449304,353
2022-07-08 17:01:32.450938,351
2022-07-08 17:01:32.452494,330
2022-07-08 17:01:32.454203,321
2022-07-08 17:01:32.455644,287
2022-07-08 17:01:32.457050,247
2022-07-08 17:01:32.458403,269
2022-07-08 17:01:32.459839,303
2022-07-08 17:01:32.461389,310
2022-07-08 17:01:32.462848,315
2022-07-08 17:01:32.464288,301
2022-07-08 17:01:32.465948,287
2022-07-08 17:01:32.467457,303
2022-07-08 17:01:32.468934,299
2022-07-08 17:01:32.470549,278
2022-07-08 17:01:32.471976,256
2022-07-08 17:01:32.473386,199
2022-07-08 17:01:32.475679,176
2022-07-08 17:01:32.478567,203
2022-07-08 17:01:32.480098,206
2022-07-08 17:01:32.481629,172
2022-07-08 17:01:32.483061,131
2022-07-08 17:01:32.484456,115
2022-07-08 17:01:32.485816,120
2022-07-08 17:01:32.487166,138
2022-07-08 17:01:32.665837,165
2022-07-08 17:01:32.668229,183
2022-07-08 17:01:32.669998,185
2022-07-08 17:01:32.671588,174
2022-07-08 17:01:32.673404,183
2022-07-08 17:01:32.675034,217
2022-07-08 17:01:32.676723,237
2022-07-08 17:01:32.679097,240
2022-07-08 17:01:32.681125,222
2022-07-08 17:01:32.682596,192
2022-07-08 17:01:32.683956,217
2022-07-08 17:01:32.685360,267
2022-07-08 17:01:32.686723,278
2022-07-08 17:01:32.688082,290
2022-07-08 17:01:32.689429,283
2022-07-08 17:01:32.690978,240
2022-07-08 17:01:32.692469,226
2022-07-08 17:01:32.694266,251
2022-07-08 17:01:32.696233,271
2022-07-08 17:01:32.697724,278
2022-07-08 17:01:32.699360,271
2022-07-08 17:01:32.702370,265
2022-07-08 17:01:32.704369,281
2022-07-08 17:01:32.705936,308
2022-07-08 17:01:32.707542,278
2022-07-08 17:01:32.709116,174
2022-07-08 17:01:32.711141,231
2022-07-08 17:01:32.713751,777
2022-07-08 17:01:32.715337,1672
2022-07-08 17:01:32.716755,2178
2022-07-08 17:01:32.889825,1581
2022-07-08 17:01:32.892290,303
2022-07-08 17:01:32.894342,-262
2022-07-08 17:01:32.896042,56
2022-07-08 17:01:32.897674,233
2022-07-08 17:01:32.899358,138
2022-07-08 17:01:32.901032,194
2022-07-08 17:01:32.902523,253
2022-07-08 17:01:32.904082,185
2022-07-08 17:01:32.905581,185
2022-07-08 17:01:32.907094,242
2022-07-08 17:01:32.908543,260
2022-07-08 17:01:32.910053,283
2022-07-08 17:01:32.911455,312
2022-07-08 17:01:32.912851,312
2022-07-08 17:01:32.914235,324
2022-07-08 17:01:32.915736,369
2022-07-08 17:01:32.917131,421
2022-07-08 17:01:32.918603,455
2022-07-08 17:01:32.920039,462
2022-07-08 17:01:32.921433,457
2022-07-08 17:01:32.922858,485
2022-07-08 17:01:32.925308,548
2022-07-08 17:01:32.927926,611
2022-07-08 17:01:32.929513,675
2022-07-08 17:01:32.930963,725
2022-07-08 17:01:32.932328,756
2022-07-08 17:01:32.933743,797
2022-07-08 17:01:32.935187,827
2022-07-08 17:01:32.936549,815
2022-07-08 17:01:33.161113,779
2022-07-08 17:01:33.163446,738
2022-07-08 17:01:33.165426,666
2022-07-08 17:01:33.167102,541
2022-07-08 17:01:33.168783,403
2022-07-08 17:01:33.170461,296
2022-07-08 17:01:33.172148,194
2022-07-08 17:01:33.173788,72
2022-07-08 17:01:33.175579,-11
2022-07-08 17:01:33.177207,-38
2022-07-08 17:01:33.179075,-40
2022-07-08 17:01:33.180713,-29
2022-07-08 17:01:33.182323,-36
2022-07-08 17:01:33.183796,-70
2022-07-08 17:01:33.185221,-70
2022-07-08 17:01:33.186759,-36
2022-07-08 17:01:33.188868,-11
2022-07-08 17:01:33.190362,11
2022-07-08 17:01:33.191796,33
2022-07-08 17:01:33.193351,43
2022-07-08 17:01:33.195109,67
2022-07-08 17:01:33.198548,90
2022-07-08 17:01:33.200809,104
2022-07-08 17:01:33.202601,129
2022-07-08 17:01:33.204121,149
2022-07-08 17:01:33.205529,149
2022-07-08 17:01:33.206917,158
2022-07-08 17:01:33.208300,172
2022-07-08 17:01:33.210142,185
2022-07-08 17:01:33.212139,210
2022-07-08 17:01:33.296160,215
2022-07-08 17:01:33.298550,188
2022-07-08 17:01:33.300560,133
2022-07-08 17:01:33.302277,70
2022-07-08 17:01:33.303963,49
2022-07-08 17:01:33.305680,63
2022-07-08 17:01:33.307406,56
2022-07-08 17:01:33.309238,45
2022-07-08 17:01:33.311002,67
2022-07-08 17:01:33.312636,90
2022-07-08 17:01:33.314151,97
2022-07-08 17:01:33.315602,104
2022-07-08 17:01:33.317183,90
2022-07-08 17:01:33.318560,83
2022-07-08 17:01:33.319976,108
2022-07-08 17:01:33.321508,120
2022-07-08 17:01:33.322966,120
2022-07-08 17:01:33.324388,122
2022-07-08 17:01:33.325845,92
2022-07-08 17:01:33.327243,81
2022-07-08 17:01:33.328636,113
2022-07-08 17:01:33.330020,129
2022-07-08 17:01:33.332455,129
2022-07-08 17:01:33.334861,122
2022-07-08 17:01:33.336510,95
2022-07-08 17:01:33.337889,90
2022-07-08 17:01:33.339361,115
2022-07-08 17:01:33.341036,111
2022-07-08 17:01:33.342703,72
2022-07-08 17:01:33.344817,58
2022-07-08 17:01:33.610137,86
2022-07-08 17:01:33.613073,117
2022-07-08 17:01:33.615031,115
2022-07-08 17:01:33.616870,74
2022-07-08 17:01:33.618493,33
2022-07-08 17:01:33.620143,-4
2022-07-08 17:01:33.621605,-49
2022-07-08 17:01:33.622978,-43
2022-07-08 17:01:33.624700,-2
2022-07-08 17:01:33.626268,-13
2022-07-08 17:01:33.627717,-61
2022-07-08 17:01:33.629101,-108
2022-07-08 17:01:33.630481,-149
2022-07-08 17:01:33.631864,-165
2022-07-08 17:01:33.633234,-185
2022-07-08 17:01:33.634784,-294
2022-07-08 17:01:33.636260,-330
2022-07-08 17:01:33.637696,149
2022-07-08 17:01:33.639205,1140
2022-07-08 17:01:33.640610,1894
2022-07-08 17:01:33.642036,1593
2022-07-08 17:01:33.643504,351
2022-07-08 17:01:33.645022,-500
2022-07-08 17:01:33.647448,-308
2022-07-08 17:01:33.650020,-15
2022-07-08 17:01:33.651784,-90
2022-07-08 17:01:33.653283,-92
2022-07-08 17:01:33.654756,-2
2022-07-08 17:01:33.656223,-13
2022-07-08 17:01:33.657623,-22
2022-07-08 17:01:33.879689,36
2022-07-08 17:01:33.882426,86
2022-07-08 17:01:33.884441,101
2022-07-08 17:01:33.886175,124
2022-07-08 17:01:33.887895,147
2022-07-08 17:01:33.889612,151
2022-07-08 17:01:33.891247,158
2022-07-08 17:01:33.892854,176
2022-07-08 17:01:33.894501,156
2022-07-08 17:01:33.896056,129
2022-07-08 17:01:33.897451,142
2022-07-08 17:01:33.898824,163
2022-07-08 17:01:33.900223,206
2022-07-08 17:01:33.901600,287
2022-07-08 17:01:33.902951,364
2022-07-08 17:01:33.904318,412
2022-07-08 17:01:33.905910,437
2022-07-08 17:01:33.907416,451
2022-07-08 17:01:33.908864,491
2022-07-08 17:01:33.910249,543
2022-07-08 17:01:33.911639,559
2022-07-08 17:01:33.913019,516
2022-07-08 17:01:33.914462,412
2022-07-08 17:01:33.917624,271
2022-07-08 17:01:33.920310,151
2022-07-08 17:01:33.922312,56
2022-07-08 17:01:33.923921,-29
2022-07-08 17:01:33.925503,-106
2022-07-08 17:01:33.926966,-165
2022-07-08 17:01:33.928413,-179
2022-07-08 17:01:34.016097,-156
2022-07-08 17:01:34.018583,-133
2022-07-08 17:01:34.020593,-117
2022-07-08 17:01:34.022304,-111
2022-07-08 17:01:34.023940,-106
2022-07-08 17:01:34.025541,-81
2022-07-08 17:01:34.027239,-54
2022-07-08 17:01:34.028978,-58
2022-07-08 17:01:34.030714,-72
2022-07-08 17:01:34.032190,-81
2022-07-08 17:01:34.033608,-111
2022-07-08 17:01:34.035006,-111
2022-07-08 17:01:34.036414,-63
2022-07-08 17:01:34.037800,-24
2022-07-08 17:01:34.039158,-9
2022-07-08 17:01:34.040606,-20
2022-07-08 17:01:34.042225,-56
2022-07-08 17:01:34.043684,-49
2022-07-08 17:01:34.045055,-4
2022-07-08 17:01:34.046437,22
2022-07-08 17:01:34.047805,33
2022-07-08 17:01:34.049351,38
2022-07-08 17:01:34.050801,38
2022-07-08 17:01:34.054190,61
2022-07-08 17:01:34.056620,95
2022-07-08 17:01:34.058626,117
2022-07-08 17:01:34.060307,129
2022-07-08 17:01:34.061889,113
2022-07-08 17:01:34.063622,101
2022-07-08 17:01:34.066138,122
2022-07-08 17:01:34.240655,151
2022-07-08 17:01:34.242997,172
2022-07-08 17:01:34.245051,172
2022-07-08 17:01:34.246735,126
2022-07-08 17:01:34.248477,86
2022-07-08 17:01:34.250083,106
2022-07-08 17:01:34.251795,147
2022-07-08 17:01:34.253518,158
2022-07-08 17:01:34.255202,165
2022-07-08 17:01:34.256769,147
2022-07-08 17:01:34.258229,115
2022-07-08 17:01:34.259645,129
2022-07-08 17:01:34.261070,158
2022-07-08 17:01:34.262469,133
2022-07-08 17:01:34.264020,56
2022-07-08 17:01:34.265594,-11
2022-07-08 17:01:34.267002,-11
2022-07-08 17:01:34.268544,22
2022-07-08 17:01:34.270077,47
2022-07-08 17:01:34.271563,72
2022-07-08 17:01:34.273023,81
2022-07-08 17:01:34.274503,63
2022-07-08 17:01:34.277134,58
2022-07-08 17:01:34.278778,88
2022-07-08 17:01:34.280387,122
2022-07-08 17:01:34.282320,140
2022-07-08 17:01:34.284557,145
2022-07-08 17:01:34.286060,133
2022-07-08 17:01:34.287716,131
2022-07-08 17:01:34.289132,158
2022-07-08 17:01:34.555675,199
2022-07-08 17:01:34.558116,215
2022-07-08 17:01:34.560022,181
2022-07-08 17:01:34.561700,138
2022-07-08 17:01:34.563390,140
2022-07-08 17:01:34.565065,167
2022-07-08 17:01:34.566805,165
2022-07-08 17:01:34.568458,151
2022-07-08 17:01:34.570082,122
2022-07-08 17:01:34.571691,70
2022-07-08 17:01:34.573150,54
2022-07-08 17:01:34.574590,52
2022-07-08 17:01:34.576050,15
2022-07-08 17:01:34.577918,-27
2022-07-08 17:01:34.579471,-92
2022-07-08 17:01:34.581349,-206
2022-07-08 17:01:34.583168,-360
2022-07-08 17:01:34.584641,-312
2022-07-08 17:01:34.586271,292
2022-07-08 17:01:34.587747,1271
2022-07-08 17:01:34.589176,1858
2022-07-08 17:01:34.592453,1366
2022-07-08 17:01:34.594203,147
2022-07-08 17:01:34.595835,-482
2022-07-08 17:01:34.597545,-215
2022-07-08 17:01:34.600048,-24
2022-07-08 17:01:34.601675,-160
2022-07-08 17:01:34.603403,-163
2022-07-08 17:01:34.604907,-72
2022-07-08 17:01:34.606359,-72
2022-07-08 17:01:34.691170,-56
2022-07-08 17:01:34.693673,-4
2022-07-08 17:01:34.695605,2
2022-07-08 17:01:34.697260,2
2022-07-08 17:01:34.698977,43
2022-07-08 17:01:34.700671,95
2022-07-08 17:01:34.702388,129
2022-07-08 17:01:34.703950,133
2022-07-08 17:01:34.705754,111
2022-07-08 17:01:34.707324,115
2022-07-08 17:01:34.708750,165
2022-07-08 17:01:34.710217,226
2022-07-08 17:01:34.711690,271
2022-07-08 17:01:34.713081,301
2022-07-08 17:01:34.714510,317
2022-07-08 17:01:34.715974,349
2022-07-08 17:01:34.717547,419
2022-07-08 17:01:34.718933,491
2022-07-08 17:01:34.720307,539
2022-07-08 17:01:34.721681,539
2022-07-08 17:01:34.723038,496
2022-07-08 17:01:34.724469,473
2022-07-08 17:01:34.725885,469
2022-07-08 17:01:34.728325,417
2022-07-08 17:01:34.730713,303
2022-07-08 17:01:34.732398,147
2022-07-08 17:01:34.733819,2
2022-07-08 17:01:34.735276,-88
2022-07-08 17:01:34.736653,-138
2022-07-08 17:01:34.738078,-163
2022-07-08 17:01:34.959193,-167
2022-07-08 17:01:34.961708,-174
2022-07-08 17:01:34.963376,-179
2022-07-08 17:01:34.964952,-176
2022-07-08 17:01:34.966562,-154
2022-07-08 17:01:34.968157,-120
2022-07-08 17:01:34.969684,-111
2022-07-08 17:01:34.971120,-140
2022-07-08 17:01:34.972646,-145
2022-07-08 17:01:34.974134,-115
2022-07-08 17:01:34.975536,-88
2022-07-08 17:01:34.976972,-63
2022-07-08 17:01:34.978788,-52
2022-07-08 17:01:34.980473,-77
2022-07-08 17:01:34.982864,-92
2022-07-08 17:01:34.984407,-101
2022-07-08 17:01:34.985897,-122
2022-07-08 17:01:34.987357,-106
2022-07-08 17:01:34.988834,-74
2022-07-08 17:01:34.990216,-74
2022-07-08 17:01:34.991702,-63
2022-07-08 17:01:34.993089,-43
2022-07-08 17:01:34.995642,-24
2022-07-08 17:01:34.997252,-4
2022-07-08 17:01:34.998824,11
2022-07-08 17:01:35.000377,18
2022-07-08 17:01:35.001899,29
2022-07-08 17:01:35.003394,40
2022-07-08 17:01:35.004877,54
2022-07-08 17:01:35.006845,74
2022-07-08 17:01:35.140390,90
2022-07-08 17:01:35.142686,97
2022-07-08 17:01:35.144264,106
2022-07-08 17:01:35.145830,113
2022-07-08 17:01:35.147423,117
2022-07-08 17:01:35.148982,129
2022-07-08 17:01:35.150393,108
2022-07-08 17:01:35.151805,77
2022-07-08 17:01:35.153200,88
2022-07-08 17:01:35.154714,104
2022-07-08 17:01:35.156124,106
2022-07-08 17:01:35.157535,111
2022-07-08 17:01:35.158936,79
2022-07-08 17:01:35.160333,49
2022-07-08 17:01:35.161728,67
2022-07-08 17:01:35.163119,83
2022-07-08 17:01:35.164513,79
2022-07-08 17:01:35.166104,56
2022-07-08 17:01:35.167615,13
2022-07-08 17:01:35.169111,13
2022-07-08 17:01:35.170595,45
2022-07-08 17:01:35.172011,54
2022-07-08 17:01:35.173489,61
2022-07-08 17:01:35.174986,77
2022-07-08 17:01:35.178478,72
2022-07-08 17:01:35.180228,31
2022-07-08 17:01:35.182178,-18
2022-07-08 17:01:35.184236,-29
2022-07-08 17:01:35.185823,-4
2022-07-08 17:01:35.187347,6
2022-07-08 17:01:35.365708,9
2022-07-08 17:01:35.367649,33
2022-07-08 17:01:35.369237,54
2022-07-08 17:01:35.370740,49
2022-07-08 17:01:35.372200,52
2022-07-08 17:01:35.373615,31
2022-07-08 17:01:35.375100,-9
2022-07-08 17:01:35.376588,6
2022-07-08 17:01:35.378173,45
2022-07-08 17:01:35.380237,40
2022-07-08 17:01:35.382465,27
2022-07-08 17:01:35.384067,38
2022-07-08 17:01:35.385504,56
2022-07-08 17:01:35.387050,70
2022-07-08 17:01:35.388508,74
2022-07-08 17:01:35.389996,65
2022-07-08 17:01:35.391599,52
2022-07-08 17:01:35.393042,36
2022-07-08 17:01:35.394491,11
2022-07-08 17:01:35.395990,-15
2022-07-08 17:01:35.397450,-38
2022-07-08 17:01:35.398880,-43
2022-07-08 17:01:35.401713,-29
2022-07-08 17:01:35.403737,-27
2022-07-08 17:01:35.405339,-27
2022-07-08 17:01:35.406803,0
2022-07-08 17:01:35.408256,15
2022-07-08 17:01:35.409711,-24
2022-07-08 17:01:35.411165,-156
2022-07-08 17:01:35.412614,-276
2022-07-08 17:01:35.590325,22
2022-07-08 17:01:35.592369,920
2022-07-08 17:01:35.594074,1826
2022-07-08 17:01:35.595770,1815
2022-07-08 17:01:35.597420,655
2022-07-08 17:01:35.598921,-462
2022-07-08 17:01:35.600394,-475
2022-07-08 17:01:35.601788,-101
2022-07-08 17:01:35.603233,-133
2022-07-08 17:01:35.604816,-215
2022-07-08 17:01:35.606325,-151
2022-07-08 17:01:35.607734,-167
2022-07-08 17:01:35.609178,-185
2022-07-08 17:01:35.610559,-111
2022-07-08 17:01:35.611940,-67
2022-07-08 17:01:35.613324,-70
2022-07-08 17:01:35.614773,-54
2022-07-08 17:01:35.616358,-31
2022-07-08 17:01:35.618018,9
2022-07-08 17:01:35.619558,70
2022-07-08 17:01:35.621034,106
2022-07-08 17:01:35.622556,101
2022-07-08 17:01:35.624004,81
2022-07-08 17:01:35.626563,108
2022-07-08 17:01:35.628405,179
2022-07-08 17:01:35.630094,240
2022-07-08 17:01:35.632022,294
2022-07-08 17:01:35.634264,351
2022-07-08 17:01:35.635769,407
2022-07-08 17:01:35.637173,466
2022-07-08 17:01:35.815097,519
2022-07-08 17:01:35.817631,521
2022-07-08 17:01:35.819328,489
2022-07-08 17:01:35.821000,469
2022-07-08 17:01:35.822686,423
2022-07-08 17:01:35.824271,346
2022-07-08 17:01:35.825671,276
2022-07-08 17:01:35.827065,185
2022-07-08 17:01:35.828678,61
2022-07-08 17:01:35.830136,-74
2022-07-08 17:01:35.831570,-206
2022-07-08 17:01:35.832950,-276
2022-07-08 17:01:35.834467,-274
2022-07-08 17:01:35.835953,-265
2022-07-08 17:01:35.837446,-262
2022-07-08 17:01:35.838889,-269
2022-07-08 17:01:35.840447,-271
2022-07-08 17:01:35.841852,-242
2022-07-08 17:01:35.843226,-197
2022-07-08 17:01:35.844843,-158
2022-07-08 17:01:35.846551,-126
2022-07-08 17:01:35.848215,-115
2022-07-08 17:01:35.851378,-120
2022-07-08 17:01:35.853562,-122
2022-07-08 17:01:35.855096,-122
2022-07-08 17:01:35.856599,-97
2022-07-08 17:01:35.858706,-70
2022-07-08 17:01:35.861043,-72
2022-07-08 17:01:35.862626,-70
2022-07-08 17:01:35.864355,-33
2022-07-08 17:01:36.176051,9
2022-07-08 17:01:36.178931,33
2022-07-08 17:01:36.181219,36
2022-07-08 17:01:36.183490,-11
2022-07-08 17:01:36.185257,-54
2022-07-08 17:01:36.187001,-27
2022-07-08 17:01:36.188564,15
2022-07-08 17:01:36.190209,27
2022-07-08 17:01:36.191747,27
2022-07-08 17:01:36.193178,-9
2022-07-08 17:01:36.194573,-38
2022-07-08 17:01:36.195948,-4
2022-07-08 17:01:36.197307,36
2022-07-08 17:01:36.198687,49
2022-07-08 17:01:36.200211,58
2022-07-08 17:01:36.201924,56
2022-07-08 17:01:36.203510,54
2022-07-08 17:01:36.204891,79
2022-07-08 17:01:36.206343,108
2022-07-08 17:01:36.207759,131
2022-07-08 17:01:36.209219,145
2022-07-08 17:01:36.210609,133
2022-07-08 17:01:36.214001,129
2022-07-08 17:01:36.215684,156
2022-07-08 17:01:36.217299,183
2022-07-08 17:01:36.218691,167
2022-07-08 17:01:36.220081,124
2022-07-08 17:01:36.221518,92
2022-07-08 17:01:36.222881,104
2022-07-08 17:01:36.224417,131
2022-07-08 17:01:36.310614,147
2022-07-08 17:01:36.313109,163
2022-07-08 17:01:36.315104,165
2022-07-08 17:01:36.316866,142
2022-07-08 17:01:36.318583,138
2022-07-08 17:01:36.320200,165
2022-07-08 17:01:36.321940,185
2022-07-08 17:01:36.323593,158
2022-07-08 17:01:36.325385,97
2022-07-08 17:01:36.326963,74
2022-07-08 17:01:36.328372,95
2022-07-08 17:01:36.329887,111
2022-07-08 17:01:36.331368,104
2022-07-08 17:01:36.332757,95
2022-07-08 17:01:36.334134,72
2022-07-08 17:01:36.335501,27
2022-07-08 17:01:36.336961,24
2022-07-08 17:01:36.338341,61
2022-07-08 17:01:36.339710,81
2022-07-08 17:01:36.341157,97
2022-07-08 17:01:36.342540,104
2022-07-08 17:01:36.343922,47
2022-07-08 17:01:36.345651,-77
2022-07-08 17:01:36.348928,-24
2022-07-08 17:01:36.351503,593
2022-07-08 17:01:36.353277,1581
2022-07-08 17:01:36.354805,2098
2022-07-08 17:01:36.356276,1473
2022-07-08 17:01:36.358073,147
2022-07-08 17:01:36.360353,-491
2022-07-08 17:01:36.536150,-179
2022-07-08 17:01:36.538547,13
2022-07-08 17:01:36.540447,-131
2022-07-08 17:01:36.542024,-122
2022-07-08 17:01:36.543605,-36
2022-07-08 17:01:36.545468,-36
2022-07-08 17:01:36.547061,-33
2022-07-08 17:01:36.548529,-45
2022-07-08 17:01:36.550051,-108
2022-07-08 17:01:36.551606,-145
2022-07-08 17:01:36.553218,-131
2022-07-08 17:01:36.554658,-101
2022-07-08 17:01:36.556048,-72
2022-07-08 17:01:36.557437,-67
2022-07-08 17:01:36.558828,-90
2022-07-08 17:01:36.560372,-77
2022-07-08 17:01:36.561917,-24
2022-07-08 17:01:36.563406,31
2022-07-08 17:01:36.564865,81
2022-07-08 17:01:36.566330,124
2022-07-08 17:01:36.567720,165
2022-07-08 17:01:36.569176,222
2022-07-08 17:01:36.570658,290
2022-07-08 17:01:36.573639,367
2022-07-08 17:01:36.575492,421
2022-07-08 17:01:36.577132,448
2022-07-08 17:01:36.578955,466
2022-07-08 17:01:36.580705,466
2022-07-08 17:01:36.582396,428
2022-07-08 17:01:36.584716,324
2022-07-08 17:01:36.850380,163
2022-07-08 17:01:36.853124,6
2022-07-08 17:01:36.855185,-111
2022-07-08 17:01:36.857139,-206
2022-07-08 17:01:36.858900,-262
2022-07-08 17:01:36.860840,-274
2022-07-08 17:01:36.862481,-290
2022-07-08 17:01:36.863979,-335
2022-07-08 17:01:36.865537,-353
2022-07-08 17:01:36.867014,-326
2022-07-08 17:01:36.868510,-296
2022-07-08 17:01:36.869995,-285
2022-07-08 17:01:36.871447,-330
2022-07-08 17:01:36.872904,-405
2022-07-08 17:01:36.874334,-396
2022-07-08 17:01:36.875789,-344
2022-07-08 17:01:36.877448,-317
2022-07-08 17:01:36.878875,-278
2022-07-08 17:01:36.880347,-242
2022-07-08 17:01:36.881836,-226
2022-07-08 17:01:36.883311,-203
2022-07-08 17:01:36.884711,-172
2022-07-08 17:01:36.887916,-142
2022-07-08 17:01:36.890742,-111
2022-07-08 17:01:36.892745,-90
2022-07-08 17:01:36.894391,-79
2022-07-08 17:01:36.895789,-58
2022-07-08 17:01:36.897317,-38
2022-07-08 17:01:36.899369,-27
2022-07-08 17:01:36.901457,-4
2022-07-08 17:01:37.074373,9
2022-07-08 17:01:37.076766,-15
2022-07-08 17:01:37.078650,-47
2022-07-08 17:01:37.080221,-54
2022-07-08 17:01:37.081786,-31
2022-07-08 17:01:37.083490,-11
2022-07-08 17:01:37.085316,-20
2022-07-08 17:01:37.086880,-24
2022-07-08 17:01:37.088599,-4
2022-07-08 17:01:37.090282,13
2022-07-08 17:01:37.091756,27
2022-07-08 17:01:37.093154,45
2022-07-08 17:01:37.094653,43
2022-07-08 17:01:37.096075,38
2022-07-08 17:01:37.097467,63
2022-07-08 17:01:37.098856,83
2022-07-08 17:01:37.100413,90
2022-07-08 17:01:37.101823,101
2022-07-08 17:01:37.103212,99
2022-07-08 17:01:37.104601,97
2022-07-08 17:01:37.105985,117
2022-07-08 17:01:37.107475,129
2022-07-08 17:01:37.108939,135
2022-07-08 17:01:37.112311,138
2022-07-08 17:01:37.114107,106
2022-07-08 17:01:37.115758,95
2022-07-08 17:01:37.117179,122
2022-07-08 17:01:37.118582,133
2022-07-08 17:01:37.119945,140
2022-07-08 17:01:37.121305,151
2022-07-08 17:01:37.345925,149
2022-07-08 17:01:37.348220,158
2022-07-08 17:01:37.350319,176
2022-07-08 17:01:37.352073,156
2022-07-08 17:01:37.354187,108
2022-07-08 17:01:37.355979,70
2022-07-08 17:01:37.357743,45
2022-07-08 17:01:37.359911,47
2022-07-08 17:01:37.362115,70
2022-07-08 17:01:37.364049,79
2022-07-08 17:01:37.365576,77
2022-07-08 17:01:37.366984,61
2022-07-08 17:01:37.368380,29
2022-07-08 17:01:37.369744,36
2022-07-08 17:01:37.371226,63
2022-07-08 17:01:37.372597,47
2022-07-08 17:01:37.373955,38
2022-07-08 17:01:37.375392,49
2022-07-08 17:01:37.376777,0
2022-07-08 17:01:37.378760,-65
2022-07-08 17:01:37.382007,-52
2022-07-08 17:01:37.384307,-29
2022-07-08 17:01:37.386035,-58
2022-07-08 17:01:37.387549,-79
2022-07-08 17:01:37.389141,-58
2022-07-08 17:01:37.390673,-31
2022-07-08 17:01:37.392157,-27
2022-07-08 17:01:37.393623,-49
2022-07-08 17:01:37.395090,-83
2022-07-08 17:01:37.396679,-108
2022-07-08 17:01:37.481086,-129
2022-07-08 17:01:37.483418,-138
2022-07-08 17:01:37.485367,-190
2022-07-08 17:01:37.487067,-321
2022-07-08 17:01:37.488747,-188
2022-07-08 17:01:37.490432,530
2022-07-08 17:01:37.492040,1459
2022-07-08 17:01:37.493793,1831
2022-07-08 17:01:37.495563,1155
2022-07-08 17:01:37.497083,-29
2022-07-08 17:01:37.498604,-503
2022-07-08 17:01:37.500068,-235
2022-07-08 17:01:37.501505,-131
2022-07-08 17:01:37.502978,-231
2022-07-08 17:01:37.504392,-179
2022-07-08 17:01:37.505771,-124
2022-07-08 17:01:37.507304,-181
2022-07-08 17:01:37.508773,-194
2022-07-08 17:01:37.510317,-135
2022-07-08 17:01:37.511780,-88
2022-07-08 17:01:37.513345,-65
2022-07-08 17:01:37.514969,-38
2022-07-08 17:01:37.517354,-13
2022-07-08 17:01:37.519661,18
2022-07-08 17:01:37.521288,63
2022-07-08 17:01:37.522741,120
2022-07-08 17:01:37.524151,167
2022-07-08 17:01:37.525587,197
2022-07-08 17:01:37.527011,215
2022-07-08 17:01:37.528439,244
2022-07-08 17:01:37.705677,305
2022-07-08 17:01:37.708148,378
2022-07-08 17:01:37.710185,437
2022-07-08 17:01:37.711875,475
2022-07-08 17:01:37.713504,473
2022-07-08 17:01:37.715193,473
2022-07-08 17:01:37.716893,521
2022-07-08 17:01:37.718490,548
2022-07-08 17:01:37.720205,512
2022-07-08 17:01:37.721745,435
2022-07-08 17:01:37.723190,337
2022-07-08 17:01:37.724743,228
2022-07-08 17:01:37.726217,122
2022-07-08 17:01:37.727681,27
2022-07-08 17:01:37.729077,-56
2022-07-08 17:01:37.730447,-154
2022-07-08 17:01:37.732108,-244
2022-07-08 17:01:37.733637,-271
2022-07-08 17:01:37.735105,-240
2022-07-08 17:01:37.736566,-213
2022-07-08 17:01:37.738033,-203
2022-07-08 17:01:37.739490,-197
2022-07-08 17:01:37.741835,-183
2022-07-08 17:01:37.744433,-160
2022-07-08 17:01:37.745974,-165
2022-07-08 17:01:37.747892,-201
2022-07-08 17:01:37.750412,-201
2022-07-08 17:01:37.751968,-185
2022-07-08 17:01:37.753473,-188
2022-07-08 17:01:37.755113,-156
2022-07-08 17:01:38.020827,-113
2022-07-08 17:01:38.023102,-83
2022-07-08 17:01:38.024740,-70
2022-07-08 17:01:38.026419,-99
2022-07-08 17:01:38.028119,-138
2022-07-08 17:01:38.029760,-113
2022-07-08 17:01:38.031259,-70
2022-07-08 17:01:38.032717,-54
2022-07-08 17:01:38.034467,-38
2022-07-08 17:01:38.035976,-38
2022-07-08 17:01:38.037413,-63
2022-07-08 17:01:38.038856,-65
2022-07-08 17:01:38.040279,-24
2022-07-08 17:01:38.041755,13
2022-07-08 17:01:38.043219,13
2022-07-08 17:01:38.044676,-24
2022-07-08 17:01:38.046214,-52
2022-07-08 17:01:38.047619,-18
2022-07-08 17:01:38.049014,20
2022-07-08 17:01:38.050393,38
2022-07-08 17:01:38.051762,49
2022-07-08 17:01:38.053136,40
2022-07-08 17:01:38.054485,43
2022-07-08 17:01:38.057017,77
2022-07-08 17:01:38.059115,101
2022-07-08 17:01:38.060677,120
2022-07-08 17:01:38.062082,126
2022-07-08 17:01:38.063542,111
2022-07-08 17:01:38.065586,108
2022-07-08 17:01:38.067728,135
2022-07-08 17:01:38.378920,158
2022-07-08 17:01:38.381546,179
2022-07-08 17:01:38.383528,188
2022-07-08 17:01:38.385698,172
2022-07-08 17:01:38.387294,165
2022-07-08 17:01:38.388876,190
2022-07-08 17:01:38.390424,217
2022-07-08 17:01:38.392224,222
2022-07-08 17:01:38.393772,197
2022-07-08 17:01:38.395315,145
2022-07-08 17:01:38.396784,126
2022-07-08 17:01:38.398526,145
2022-07-08 17:01:38.399973,140
2022-07-08 17:01:38.401489,145
2022-07-08 17:01:38.402922,158
2022-07-08 17:01:38.404399,138
2022-07-08 17:01:38.405879,108
2022-07-08 17:01:38.407342,92
2022-07-08 17:01:38.408792,92
2022-07-08 17:01:38.410141,92
2022-07-08 17:01:38.411513,72
2022-07-08 17:01:38.412894,40
2022-07-08 17:01:38.415200,40
2022-07-08 17:01:38.417616,65
2022-07-08 17:01:38.419337,86
2022-07-08 17:01:38.420748,88
2022-07-08 17:01:38.422146,54
2022-07-08 17:01:38.423535,-40
2022-07-08 17:01:38.424898,-199
2022-07-08 17:01:38.426299,-206
2022-07-08 17:01:38.515292,333
2022-07-08 17:01:38.517803,1310
2022-07-08 17:01:38.519839,1835
2022-07-08 17:01:38.521592,1146
2022-07-08 17:01:38.523243,-199
2022-07-08 17:01:38.524896,-738
2022-07-08 17:01:38.526578,-360
2022-07-08 17:01:38.528212,-174
2022-07-08 17:01:38.529877,-296
2022-07-08 17:01:38.531387,-249
2022-07-08 17:01:38.532817,-156
2022-07-08 17:01:38.534182,-158
2022-07-08 17:01:38.535573,-122
2022-07-08 17:01:38.536935,-70
2022-07-08 17:01:38.538309,-83
2022-07-08 17:01:38.539760,-97
2022-07-08 17:01:38.541359,-54
2022-07-08 17:01:38.542849,0
2022-07-08 17:01:38.544289,38
2022-07-08 17:01:38.545656,72
2022-07-08 17:01:38.547265,104
2022-07-08 17:01:38.548667,129
2022-07-08 17:01:38.550250,176
2022-07-08 17:01:38.552326,240
2022-07-08 17:01:38.553993,299
2022-07-08 17:01:38.555543,349
2022-07-08 17:01:38.557180,396
2022-07-08 17:01:38.558642,448
2022-07-08 17:01:38.560084,509
2022-07-08 17:01:38.561454,577
2022-07-08 17:01:38.696110,632
2022-07-08 17:01:38.698574,636
2022-07-08 17:01:38.700556,609
2022-07-08 17:01:38.702231,596
2022-07-08 17:01:38.703914,562
2022-07-08 17:01:38.705614,482
2022-07-08 17:01:38.707338,353
2022-07-08 17:01:38.708932,176
2022-07-08 17:01:38.710567,13
2022-07-08 17:01:38.712091,-86
2022-07-08 17:01:38.713516,-140
2022-07-08 17:01:38.714917,-165
2022-07-08 17:01:38.716312,-192
2022-07-08 17:01:38.717706,-240
2022-07-08 17:01:38.719091,-265
2022-07-08 17:01:38.720474,-267
2022-07-08 17:01:38.722003,-281
2022-07-08 17:01:38.723474,-285
2022-07-08 17:01:38.724915,-258
2022-07-08 17:01:38.726314,-249
2022-07-08 17:01:38.727703,-240
2022-07-08 17:01:38.729090,-210
2022-07-08 17:01:38.730477,-181
2022-07-08 17:01:38.733460,-156
2022-07-08 17:01:38.735744,-151
2022-07-08 17:01:38.737414,-176
2022-07-08 17:01:38.738873,-169
2022-07-08 17:01:38.740309,-140
2022-07-08 17:01:38.741769,-117
2022-07-08 17:01:38.743205,-86
2022-07-08 17:01:38.831149,-79
2022-07-08 17:01:38.833520,-88
2022-07-08 17:01:38.835508,-74
2022-07-08 17:01:38.837198,-58
2022-07-08 17:01:38.838907,-43
2022-07-08 17:01:38.840602,-40
2022-07-08 17:01:38.842288,-74
2022-07-08 17:01:38.843738,-101
2022-07-08 17:01:38.845264,-81
2022-07-08 17:01:38.846673,-58
2022-07-08 17:01:38.848159,-47
2022-07-08 17:01:38.849780,-33
2022-07-08 17:01:38.851404,-52
2022-07-08 17:01:38.853014,-88
2022-07-08 17:01:38.854668,-67
2022-07-08 17:01:38.856547,-38
2022-07-08 17:01:38.858659,-33
2022-07-08 17:01:38.861127,-15
2022-07-08 17:01:38.862762,-18
2022-07-08 17:01:38.864239,-29
2022-07-08 17:01:38.866901,-9
2022-07-08 17:01:38.868936,11
2022-07-08 17:01:38.871013,20
2022-07-08 17:01:38.872483,24
2022-07-08 17:01:38.873926,0
2022-07-08 17:01:38.875384,-11
2022-07-08 17:01:38.876997,13
2022-07-08 17:01:38.878515,31
2022-07-08 17:01:38.880150,40
2022-07-08 17:01:38.881604,54
2022-07-08 17:01:39.190146,63
2022-07-08 17:01:39.192444,74
2022-07-08 17:01:39.194205,99
2022-07-08 17:01:39.195938,113
2022-07-08 17:01:39.197659,113
2022-07-08 17:01:39.199356,99
2022-07-08 17:01:39.201006,56
2022-07-08 17:01:39.202637,45
2022-07-08 17:01:39.204248,86
2022-07-08 17:01:39.205685,113
2022-07-08 17:01:39.207095,131
2022-07-08 17:01:39.208482,122
2022-07-08 17:01:39.209849,83
2022-07-08 17:01:39.211307,92
2022-07-08 17:01:39.212693,122
2022-07-08 17:01:39.214330,113
2022-07-08 17:01:39.215871,104
2022-07-08 17:01:39.217328,120
2022-07-08 17:01:39.218714,135
2022-07-08 17:01:39.220087,133
2022-07-08 17:01:39.221465,108
2022-07-08 17:01:39.222851,81
2022-07-08 17:01:39.224212,74
2022-07-08 17:01:39.227629,61
2022-07-08 17:01:39.229272,-49
2022-07-08 17:01:39.230919,-115
2022-07-08 17:01:39.232436,296
2022-07-08 17:01:39.234384,1208
2022-07-08 17:01:39.236948,2014
2022-07-08 17:01:39.238602,1928
2022-07-08 17:01:39.281159,804
2022-07-08 17:01:39.284120,-192
2022-07-08 17:01:39.286646,-160
2022-07-08 17:01:39.288456,140
2022-07-08 17:01:39.290162,40
2022-07-08 17:01:39.291928,-61
2022-07-08 17:01:39.293415,24
2022-07-08 17:01:39.294889,54
2022-07-08 17:01:39.296413,36
2022-07-08 17:01:39.298000,74
2022-07-08 17:01:39.299687,77
2022-07-08 17:01:39.301166,20
2022-07-08 17:01:39.302555,-40
2022-07-08 17:01:39.303922,-77
2022-07-08 17:01:39.305279,-63
2022-07-08 17:01:39.306709,-49
2022-07-08 17:01:39.308185,-65
2022-07-08 17:01:39.309598,-77
2022-07-08 17:01:39.310981,-49
2022-07-08 17:01:39.312346,15
2022-07-08 17:01:39.313719,63
2022-07-08 17:01:39.315074,79
2022-07-08 17:01:39.317332,108
2022-07-08 17:01:39.319027,147
2022-07-08 17:01:39.320773,217
2022-07-08 17:01:39.322248,299
2022-07-08 17:01:39.323812,349
2022-07-08 17:01:39.325288,383
2022-07-08 17:01:39.326740,378
2022-07-08 17:01:39.328180,353
2022-07-08 17:01:39.549617,351
2022-07-08 17:01:39.551542,310
2022-07-08 17:01:39.553129,210
2022-07-08 17:01:39.554701,56
2022-07-08 17:01:39.556274,-124
2022-07-08 17:01:39.557881,-244
2022-07-08 17:01:39.559544,-296
2022-07-08 17:01:39.561285,-312
2022-07-08 17:01:39.562988,-321
2022-07-08 17:01:39.564496,-358
2022-07-08 17:01:39.566028,-392
2022-07-08 17:01:39.567501,-389
2022-07-08 17:01:39.568964,-349
2022-07-08 17:01:39.570549,-301
2022-07-08 17:01:39.571975,-283
2022-07-08 17:01:39.573362,-269
2022-07-08 17:01:39.574872,-256
2022-07-08 17:01:39.576346,-235
2022-07-08 17:01:39.578281,-185
2022-07-08 17:01:39.579830,-149
2022-07-08 17:01:39.581209,-124
2022-07-08 17:01:39.582887,-111
2022-07-08 17:01:39.585858,-115
2022-07-08 17:01:39.588036,-92
2022-07-08 17:01:39.589792,-90
2022-07-08 17:01:39.591329,-108
2022-07-08 17:01:39.592785,-88
2022-07-08 17:01:39.594187,-88
2022-07-08 17:01:39.595579,-90
2022-07-08 17:01:39.597315,-58
2022-07-08 17:01:39.776149,-29
2022-07-08 17:01:39.778915,2
2022-07-08 17:01:39.780882,6
2022-07-08 17:01:39.782644,-29
2022-07-08 17:01:39.784990,-63
2022-07-08 17:01:39.786892,-54
2022-07-08 17:01:39.788610,-4
2022-07-08 17:01:39.790267,15
2022-07-08 17:01:39.791894,13
2022-07-08 17:01:39.793416,9
2022-07-08 17:01:39.794927,-18
2022-07-08 17:01:39.796419,6
2022-07-08 17:01:39.798003,54
2022-07-08 17:01:39.799489,67
2022-07-08 17:01:39.801233,83
2022-07-08 17:01:39.802793,61
2022-07-08 17:01:39.804211,22
2022-07-08 17:01:39.805601,-9
2022-07-08 17:01:39.806969,-47
2022-07-08 17:01:39.808332,-20
2022-07-08 17:01:39.809702,6
2022-07-08 17:01:39.812040,-20
2022-07-08 17:01:39.814175,-15
2022-07-08 17:01:39.815983,13
2022-07-08 17:01:39.818679,49
2022-07-08 17:01:39.820234,67
2022-07-08 17:01:39.821653,27
2022-07-08 17:01:39.823103,-13
2022-07-08 17:01:39.824657,-15
2022-07-08 17:01:39.826048,22
2022-07-08 17:01:40.000133,61
2022-07-08 17:01:40.002647,65
2022-07-08 17:01:40.004277,79
2022-07-08 17:01:40.005875,67
2022-07-08 17:01:40.007475,58
2022-07-08 17:01:40.009151,104
2022-07-08 17:01:40.010686,126
2022-07-08 17:01:40.012077,140
2022-07-08 17:01:40.013511,129
2022-07-08 17:01:40.015104,65
2022-07-08 17:01:40.016675,63
2022-07-08 17:01:40.018069,97
2022-07-08 17:01:40.019588,113
2022-07-08 17:01:40.021060,131
2022-07-08 17:01:40.022480,104
2022-07-08 17:01:40.024081,63
2022-07-08 17:01:40.026551,65
2022-07-08 17:01:40.028113,95
2022-07-08 17:01:40.029518,126
2022-07-08 17:01:40.030892,129
2022-07-08 17:01:40.032403,131
2022-07-08 17:01:40.033981,113
2022-07-08 17:01:40.037156,70
2022-07-08 17:01:40.039180,74
2022-07-08 17:01:40.040703,86
2022-07-08 17:01:40.042100,101
2022-07-08 17:01:40.043475,122
2022-07-08 17:01:40.044844,95
2022-07-08 17:01:40.046219,63
2022-07-08 17:01:40.047584,45
2022-07-08 17:01:40.225764,54
2022-07-08 17:01:40.228198,72
2022-07-08 17:01:40.230136,31
2022-07-08 17:01:40.231753,-4
2022-07-08 17:01:40.233365,-15
2022-07-08 17:01:40.234946,-33
2022-07-08 17:01:40.236497,-43
2022-07-08 17:01:40.238033,-90
2022-07-08 17:01:40.239658,-154
2022-07-08 17:01:40.241207,-167
2022-07-08 17:01:40.242597,-163
2022-07-08 17:01:40.243963,-172
2022-07-08 17:01:40.245336,-285
2022-07-08 17:01:40.246693,-335
2022-07-08 17:01:40.248073,115
2022-07-08 17:01:40.249446,1013
2022-07-08 17:01:40.251133,1727
2022-07-08 17:01:40.252650,1509
2022-07-08 17:01:40.254142,385
2022-07-08 17:01:40.255594,-412
2022-07-08 17:01:40.257035,-296
2022-07-08 17:01:40.258457,-81
2022-07-08 17:01:40.259891,-210
2022-07-08 17:01:40.264364,-310
2022-07-08 17:01:40.266286,-242
2022-07-08 17:01:40.268631,-226
2022-07-08 17:01:40.270279,-244
2022-07-08 17:01:40.271697,-190
2022-07-08 17:01:40.273085,-147
2022-07-08 17:01:40.274461,-122
2022-07-08 17:01:40.451130,-108
2022-07-08 17:01:40.453469,-131
2022-07-08 17:01:40.455496,-111
2022-07-08 17:01:40.457191,-74
2022-07-08 17:01:40.458812,-38
2022-07-08 17:01:40.460474,24
2022-07-08 17:01:40.462053,61
2022-07-08 17:01:40.463664,67
2022-07-08 17:01:40.465338,70
2022-07-08 17:01:40.466979,111
2022-07-08 17:01:40.468560,185
2022-07-08 17:01:40.469971,244
2022-07-08 17:01:40.471456,299
2022-07-08 17:01:40.472917,324
2022-07-08 17:01:40.474344,321
2022-07-08 17:01:40.475730,360
2022-07-08 17:01:40.477261,403
2022-07-08 17:01:40.478792,428
2022-07-08 17:01:40.480360,432
2022-07-08 17:01:40.482067,376
2022-07-08 17:01:40.483750,290
2022-07-08 17:01:40.485315,183
2022-07-08 17:01:40.487770,74
2022-07-08 17:01:40.490015,6
2022-07-08 17:01:40.491480,-63
2022-07-08 17:01:40.492851,-122
2022-07-08 17:01:40.494302,-145
2022-07-08 17:01:40.495728,-154
2022-07-08 17:01:40.497095,-142
2022-07-08 17:01:40.498455,-124
2022-07-08 17:01:40.676133,-111
2022-07-08 17:01:40.678554,-104
2022-07-08 17:01:40.680423,-126
2022-07-08 17:01:40.682009,-149
2022-07-08 17:01:40.683570,-133
2022-07-08 17:01:40.685215,-104
2022-07-08 17:01:40.686875,-113
2022-07-08 17:01:40.688330,-147
2022-07-08 17:01:40.689845,-126
2022-07-08 17:01:40.691303,-101
2022-07-08 17:01:40.692694,-97
2022-07-08 17:01:40.694075,-67
2022-07-08 17:01:40.695456,-77
2022-07-08 17:01:40.696838,-101
2022-07-08 17:01:40.698218,-83
2022-07-08 17:01:40.699607,-67
2022-07-08 17:01:40.701203,-52
2022-07-08 17:01:40.702626,-27
2022-07-08 17:01:40.704018,-20
2022-07-08 17:01:40.705409,-15
2022-07-08 17:01:40.706792,-4
2022-07-08 17:01:40.708178,11
2022-07-08 17:01:40.709557,24
2022-07-08 17:01:40.712150,33
2022-07-08 17:01:40.714041,45
2022-07-08 17:01:40.715726,56
2022-07-08 17:01:40.717153,70
2022-07-08 17:01:40.718571,70
2022-07-08 17:01:40.720001,31
2022-07-08 17:01:40.721436,-13
2022-07-08 17:01:40.900385,-31
2022-07-08 17:01:40.902563,-13
2022-07-08 17:01:40.904322,4
2022-07-08 17:01:40.906041,-6
2022-07-08 17:01:40.907855,-27
2022-07-08 17:01:40.909589,-74
2022-07-08 17:01:40.911266,-126
2022-07-08 17:01:40.912818,-113
2022-07-08 17:01:40.914426,-81
2022-07-08 17:01:40.915869,-72
2022-07-08 17:01:40.917280,-56
2022-07-08 17:01:40.918656,-63
2022-07-08 17:01:40.920041,-92
2022-07-08 17:01:40.921435,-86
2022-07-08 17:01:40.922824,-49
2022-07-08 17:01:40.924201,-31
2022-07-08 17:01:40.925758,-36
2022-07-08 17:01:40.927201,-24
2022-07-08 17:01:40.928680,-13
2022-07-08 17:01:40.930084,9
2022-07-08 17:01:40.931468,45
2022-07-08 17:01:40.932886,54
2022-07-08 17:01:40.934262,63
2022-07-08 17:01:40.936705,86
2022-07-08 17:01:40.938566,81
2022-07-08 17:01:40.940553,92
2022-07-08 17:01:40.942017,111
2022-07-08 17:01:40.943389,113
2022-07-08 17:01:40.944746,126
2022-07-08 17:01:40.946099,140
2022-07-08 17:01:41.214838,156
2022-07-08 17:01:41.217344,176
2022-07-08 17:01:41.219360,169
2022-07-08 17:01:41.221060,140
2022-07-08 17:01:41.222770,95
2022-07-08 17:01:41.224516,58
2022-07-08 17:01:41.226218,33
2022-07-08 17:01:41.227827,9
2022-07-08 17:01:41.229586,11
2022-07-08 17:01:41.231095,20
2022-07-08 17:01:41.232498,-2
2022-07-08 17:01:41.233889,-52
2022-07-08 17:01:41.235270,-74
2022-07-08 17:01:41.236627,-49
2022-07-08 17:01:41.237998,-49
2022-07-08 17:01:41.239438,-92
2022-07-08 17:01:41.241067,-120
2022-07-08 17:01:41.242568,-145
2022-07-08 17:01:41.243934,-167
2022-07-08 17:01:41.245307,-160
2022-07-08 17:01:41.246759,-199
2022-07-08 17:01:41.248128,-317
2022-07-08 17:01:41.249531,-235
2022-07-08 17:01:41.252134,441
2022-07-08 17:01:41.254439,1459
2022-07-08 17:01:41.256298,1878
2022-07-08 17:01:41.257814,1099
2022-07-08 17:01:41.259245,-163
2022-07-08 17:01:41.260742,-562
2022-07-08 17:01:41.262179,-181
2022-07-08 17:01:41.440184,-56
2022-07-08 17:01:41.442537,-147
2022-07-08 17:01:41.444522,-79
2022-07-08 17:01:41.446237,-61
2022-07-08 17:01:41.447904,-147
2022-07-08 17:01:41.449490,-154
2022-07-08 17:01:41.451155,-88
2022-07-08 17:01:41.452896,-52
2022-07-08 17:01:41.454603,-63
2022-07-08 17:01:41.456142,-90
2022-07-08 17:01:41.457601,-117
2022-07-08 17:01:41.459066,-113
2022-07-08 17:01:41.460489,-52
2022-07-08 17:01:41.461951,11
2022-07-08 17:01:41.463400,56
2022-07-08 17:01:41.464900,74
2022-07-08 17:01:41.466367,63
2022-07-08 17:01:41.467838,90
2022-07-08 17:01:41.469293,163
2022-07-08 17:01:41.470797,231
2022-07-08 17:01:41.472255,292
2022-07-08 17:01:41.473742,335
2022-07-08 17:01:41.476708,371
2022-07-08 17:01:41.478260,421
2022-07-08 17:01:41.479843,471
2022-07-08 17:01:41.481308,507
2022-07-08 17:01:41.483033,514
2022-07-08 17:01:41.484890,473
2022-07-08 17:01:41.487054,385
2022-07-08 17:01:41.488637,281
2022-07-08 17:01:41.621034,188
2022-07-08 17:01:41.623561,90
2022-07-08 17:01:41.625554,-9
2022-07-08 17:01:41.627155,-113
2022-07-08 17:01:41.628792,-210
2022-07-08 17:01:41.630398,-224
2022-07-08 17:01:41.631985,-190
2022-07-08 17:01:41.633528,-183
2022-07-08 17:01:41.635086,-165
2022-07-08 17:01:41.636529,-147
2022-07-08 17:01:41.637902,-151
2022-07-08 17:01:41.639286,-154
2022-07-08 17:01:41.640656,-131
2022-07-08 17:01:41.642005,-81
2022-07-08 17:01:41.643373,-70
2022-07-08 17:01:41.644840,-113
2022-07-08 17:01:41.646416,-131
2022-07-08 17:01:41.647882,-99
2022-07-08 17:01:41.649320,-56
2022-07-08 17:01:41.650689,-33
2022-07-08 17:01:41.652054,-29
2022-07-08 17:01:41.653398,-40
2022-07-08 17:01:41.654845,-52
2022-07-08 17:01:41.657327,-22
2022-07-08 17:01:41.659787,13
2022-07-08 17:01:41.661261,27
2022-07-08 17:01:41.662624,40
2022-07-08 17:01:41.663974,31
2022-07-08 17:01:41.665385,20
2022-07-08 17:01:41.667249,49
2022-07-08 17:01:41.891178,72
2022-07-08 17:01:41.893722,88
2022-07-08 17:01:41.895678,92
2022-07-08 17:01:41.897302,70
2022-07-08 17:01:41.898867,65
2022-07-08 17:01:41.900416,90
2022-07-08 17:01:41.901903,115
2022-07-08 17:01:41.903381,133
2022-07-08 17:01:41.904986,111
2022-07-08 17:01:41.906516,38
2022-07-08 17:01:41.907981,-40
2022-07-08 17:01:41.909455,-67
2022-07-08 17:01:41.910854,-63
2022-07-08 17:01:41.912310,-97
2022-07-08 17:01:41.913781,-142
2022-07-08 17:01:41.915185,-169
2022-07-08 17:01:41.916795,-163
2022-07-08 17:01:41.918282,-124
2022-07-08 17:01:41.919686,-95
2022-07-08 17:01:41.921089,-74
2022-07-08 17:01:41.922473,-63
2022-07-08 17:01:41.923849,-74
2022-07-08 17:01:41.925221,-58
2022-07-08 17:01:41.927925,-20
2022-07-08 17:01:41.929613,4
2022-07-08 17:01:41.931203,20
2022-07-08 17:01:41.933001,15
2022-07-08 17:01:41.935473,2
2022-07-08 17:01:41.937024,-15
2022-07-08 17:01:41.938495,-20
2022-07-08 17:01:42.116016,6
2022-07-08 17:01:42.118404,22
2022-07-08 17:01:42.120273,2
2022-07-08 17:01:42.121846,-15
2022-07-08 17:01:42.123409,-13
2022-07-08 17:01:42.125073,18
2022-07-08 17:01:42.126877,61
2022-07-08 17:01:42.128431,79
2022-07-08 17:01:42.130031,38
2022-07-08 17:01:42.131651,-22
2022-07-08 17:01:42.133520,-33
2022-07-08 17:01:42.134985,-36
2022-07-08 17:01:42.136360,-72
2022-07-08 17:01:42.138017,-104
2022-07-08 17:01:42.139458,-129
2022-07-08 17:01:42.140817,-165
2022-07-08 17:01:42.142299,-176
2022-07-08 17:01:42.143739,-151
2022-07-08 17:01:42.145133,-129
2022-07-08 17:01:42.146514,-151
2022-07-08 17:01:42.147912,-237
2022-07-08 17:01:42.149295,-373
2022-07-08 17:01:42.150679,-349
2022-07-08 17:01:42.154367,226
2022-07-08 17:01:42.156758,1210
2022-07-08 17:01:42.158241,1856
2022-07-08 17:01:42.159674,1464
2022-07-08 17:01:42.161042,256
2022-07-08 17:01:42.162405,-466
2022-07-08 17:01:42.163752,-224
2022-07-08 17:01:42.296213,2
2022-07-08 17:01:42.298551,-126
2022-07-08 17:01:42.300468,-149
2022-07-08 17:01:42.302056,-67
2022-07-08 17:01:42.303622,-61
2022-07-08 17:01:42.305290,-49
2022-07-08 17:01:42.306987,2
2022-07-08 17:01:42.308638,-4
2022-07-08 17:01:42.310363,-38
2022-07-08 17:01:42.311947,-6
2022-07-08 17:01:42.313426,40
2022-07-08 17:01:42.314853,74
2022-07-08 17:01:42.316263,113
2022-07-08 17:01:42.317648,135
2022-07-08 17:01:42.319035,160
2022-07-08 17:01:42.320423,172
2022-07-08 17:01:42.322001,133
2022-07-08 17:01:42.323494,99
2022-07-08 17:01:42.324892,124
2022-07-08 17:01:42.326281,154
2022-07-08 17:01:42.327830,181
2022-07-08 17:01:42.329315,240
2022-07-08 17:01:42.330714,310
2022-07-08 17:01:42.333182,367
2022-07-08 17:01:42.335222,412
2022-07-08 17:01:42.336752,430
2022-07-08 17:01:42.338189,426
2022-07-08 17:01:42.339622,412
2022-07-08 17:01:42.341066,360
2022-07-08 17:01:42.342496,269
2022-07-08 17:01:42.566023,158
2022-07-08 17:01:42.568265,36
2022-07-08 17:01:42.570198,-56
2022-07-08 17:01:42.571774,-122
2022-07-08 17:01:42.573337,-165
2022-07-08 17:01:42.575009,-172
2022-07-08 17:01:42.576795,-201
2022-07-08 17:01:42.578953,-247
2022-07-08 17:01:42.580639,-235
2022-07-08 17:01:42.582324,-208
2022-07-08 17:01:42.584057,-197
2022-07-08 17:01:42.586128,-176
2022-07-08 17:01:42.587738,-174
2022-07-08 17:01:42.589224,-192
2022-07-08 17:01:42.590704,-179
2022-07-08 17:01:42.592129,-145
2022-07-08 17:01:42.593506,-122
2022-07-08 17:01:42.594875,-95
2022-07-08 17:01:42.596239,-72
2022-07-08 17:01:42.597643,-90
2022-07-08 17:01:42.599046,-95
2022-07-08 17:01:42.600433,-63
2022-07-08 17:01:42.603408,-40
2022-07-08 17:01:42.605019,-20
2022-07-08 17:01:42.606593,-20
2022-07-08 17:01:42.608075,-22
2022-07-08 17:01:42.609583,0
2022-07-08 17:01:42.611032,13
2022-07-08 17:01:42.612411,20
2022-07-08 17:01:42.614009,36
2022-07-08 17:01:42.745777,43
2022-07-08 17:01:42.748191,58
2022-07-08 17:01:42.750071,74
2022-07-08 17:01:42.751642,74
2022-07-08 17:01:42.753203,86
2022-07-08 17:01:42.754763,104
2022-07-08 17:01:42.756380,113
2022-07-08 17:01:42.757909,124
2022-07-08 17:01:42.759515,140
2022-07-08 17:01:42.761019,154
2022-07-08 17:01:42.762445,151
2022-07-08 17:01:42.763856,138
2022-07-08 17:01:42.765240,99
2022-07-08 17:01:42.766624,86
2022-07-08 17:01:42.768008,117
2022-07-08 17:01:42.769395,122
2022-07-08 17:01:42.770948,115
2022-07-08 17:01:42.772504,111
2022-07-08 17:01:42.773905,70
2022-07-08 17:01:42.775295,67
2022-07-08 17:01:42.776782,77
2022-07-08 17:01:42.778625,0
2022-07-08 17:01:42.780040,-92
2022-07-08 17:01:42.782492,-122
2022-07-08 17:01:42.785197,-124
2022-07-08 17:01:42.786931,-140
2022-07-08 17:01:42.788412,-140
2022-07-08 17:01:42.790018,-113
2022-07-08 17:01:42.791561,-108
2022-07-08 17:01:42.793183,-111
2022-07-08 17:01:43.105640,-97
2022-07-08 17:01:43.108128,-81
2022-07-08 17:01:43.110095,-56
2022-07-08 17:01:43.111708,-45
2022-07-08 17:01:43.113278,-61
2022-07-08 17:01:43.114845,-97
2022-07-08 17:01:43.116564,-149
2022-07-08 17:01:43.118188,-160
2022-07-08 17:01:43.119898,-154
2022-07-08 17:01:43.121572,-181
2022-07-08 17:01:43.123076,-192
2022-07-08 17:01:43.124591,-203
2022-07-08 17:01:43.126082,-215
2022-07-08 17:01:43.127476,-183
2022-07-08 17:01:43.128865,-163
2022-07-08 17:01:43.130250,-169
2022-07-08 17:01:43.131915,-190
2022-07-08 17:01:43.133343,-194
2022-07-08 17:01:43.134743,-163
2022-07-08 17:01:43.136142,-138
2022-07-08 17:01:43.137520,-122
2022-07-08 17:01:43.138898,-106
2022-07-08 17:01:43.140279,-115
2022-07-08 17:01:43.143720,-131
2022-07-08 17:01:43.145529,-176
2022-07-08 17:01:43.147101,-274
2022-07-08 17:01:43.148703,-199
2022-07-08 17:01:43.150716,398
2022-07-08 17:01:43.152893,1359
2022-07-08 17:01:43.154480,1887
2022-07-08 17:01:43.284444,1357
2022-07-08 17:01:43.286881,197
2022-07-08 17:01:43.288868,-364
2022-07-08 17:01:43.290540,-104
2022-07-08 17:01:43.292248,33
2022-07-08 17:01:43.293926,-113
2022-07-08 17:01:43.295650,-74
2022-07-08 17:01:43.297295,20
2022-07-08 17:01:43.299058,2
2022-07-08 17:01:43.300673,6
2022-07-08 17:01:43.302116,20
2022-07-08 17:01:43.303503,27
2022-07-08 17:01:43.304915,58
2022-07-08 17:01:43.306291,104
2022-07-08 17:01:43.307672,145
2022-07-08 17:01:43.309052,140
2022-07-08 17:01:43.310643,117
2022-07-08 17:01:43.312128,126
2022-07-08 17:01:43.313597,167
2022-07-08 17:01:43.315066,228
2022-07-08 17:01:43.316520,271
2022-07-08 17:01:43.317983,290
2022-07-08 17:01:43.319635,310
2022-07-08 17:01:43.321900,339
2022-07-08 17:01:43.323637,394
2022-07-08 17:01:43.325271,421
2022-07-08 17:01:43.326642,414
2022-07-08 17:01:43.328015,398
2022-07-08 17:01:43.329372,339
2022-07-08 17:01:43.330724,339
2022-07-08 17:01:43.466226,392
2022-07-08 17:01:43.468722,371
2022-07-08 17:01:43.470728,310
2022-07-08 17:01:43.472405,179
2022-07-08 17:01:43.474071,4
2022-07-08 17:01:43.475783,-90
2022-07-08 17:01:43.477502,-145
2022-07-08 17:01:43.479163,-183
2022-07-08 17:01:43.481150,-206
2022-07-08 17:01:43.482743,-242
2022-07-08 17:01:43.484292,-249
2022-07-08 17:01:43.485770,-233
2022-07-08 17:01:43.487244,-199
2022-07-08 17:01:43.488707,-156
2022-07-08 17:01:43.490161,-154
2022-07-08 17:01:43.491627,-174
2022-07-08 17:01:43.493432,-201
2022-07-08 17:01:43.494980,-176
2022-07-08 17:01:43.496488,-111
2022-07-08 17:01:43.497995,-95
2022-07-08 17:01:43.499423,-72
2022-07-08 17:01:43.500899,-63
2022-07-08 17:01:43.503467,-77
2022-07-08 17:01:43.505743,-33
2022-07-08 17:01:43.507335,-2
2022-07-08 17:01:43.508876,22
2022-07-08 17:01:43.510394,40
2022-07-08 17:01:43.511828,-4
2022-07-08 17:01:43.513332,-18
2022-07-08 17:01:43.514844,11
2022-07-08 17:01:43.690733,33
2022-07-08 17:01:43.692750,61
2022-07-08 17:01:43.694438,52
2022-07-08 17:01:43.696093,38
2022-07-08 17:01:43.697758,36
2022-07-08 17:01:43.699352,38
2022-07-08 17:01:43.700945,88
2022-07-08 17:01:43.702611,108
2022-07-08 17:01:43.704269,86
2022-07-08 17:01:43.705814,36
2022-07-08 17:01:43.707314,-11
2022-07-08 17:01:43.708779,27
2022-07-08 17:01:43.710242,56
2022-07-08 17:01:43.711815,58
2022-07-08 17:01:43.713367,56
2022-07-08 17:01:43.714916,-4
2022-07-08 17:01:43.716527,-4
2022-07-08 17:01:43.718093,38
2022-07-08 17:01:43.719630,43
2022-07-08 17:01:43.721178,83
2022-07-08 17:01:43.722857,79
2022-07-08 17:01:43.724469,49
2022-07-08 17:01:43.727208,72
2022-07-08 17:01:43.729129,86
2022-07-08 17:01:43.730864,135
2022-07-08 17:01:43.732391,158
2022-07-08 17:01:43.733959,140
2022-07-08 17:01:43.735674,145
2022-07-08 17:01:43.737483,111
2022-07-08 17:01:43.740049,99
2022-07-08 17:01:43.916027,104
2022-07-08 17:01:43.918534,99
2022-07-08 17:01:43.920474,113
2022-07-08 17:01:43.922132,27
2022-07-08 17:01:43.923785,-45
2022-07-08 17:01:43.925546,0
2022-07-08 17:01:43.927298,15
2022-07-08 17:01:43.928934,24
2022-07-08 17:01:43.930691,-15
2022-07-08 17:01:43.932247,-63
2022-07-08 17:01:43.933726,-18
2022-07-08 17:01:43.935203,-13
2022-07-08 17:01:43.936745,-24
2022-07-08 17:01:43.938263,-40
2022-07-08 17:01:43.939870,-81
2022-07-08 17:01:43.941423,-58
2022-07-08 17:01:43.943034,-61
2022-07-08 17:01:43.944594,-43
2022-07-08 17:01:43.946225,6
2022-07-08 17:01:43.947799,-27
2022-07-08 17:01:43.949356,-40
2022-07-08 17:01:43.951826,-33
2022-07-08 17:01:43.954244,-31
2022-07-08 17:01:43.956305,2
2022-07-08 17:01:43.957837,-33
2022-07-08 17:01:43.959273,-61
2022-07-08 17:01:43.960689,-79
2022-07-08 17:01:43.962114,-135
2022-07-08 17:01:43.963536,-167
2022-07-08 17:01:43.964969,-283
2022-07-08 17:01:44.140801,-208
2022-07-08 17:01:44.143136,464
2022-07-08 17:01:44.145111,1430
2022-07-08 17:01:44.146770,1928
2022-07-08 17:01:44.148423,1235
2022-07-08 17:01:44.150071,-83
2022-07-08 17:01:44.151715,-555
2022-07-08 17:01:44.153188,-249
2022-07-08 17:01:44.154841,-135
2022-07-08 17:01:44.156423,-240
2022-07-08 17:01:44.158012,-213
2022-07-08 17:01:44.159575,-108
2022-07-08 17:01:44.161136,-129
2022-07-08 17:01:44.162686,-151
2022-07-08 17:01:44.164235,-117
2022-07-08 17:01:44.165918,-124
2022-07-08 17:01:44.167466,-70
2022-07-08 17:01:44.169034,-11
2022-07-08 17:01:44.170514,0
2022-07-08 17:01:44.172029,36
2022-07-08 17:01:44.173518,38
2022-07-08 17:01:44.176088,86
2022-07-08 17:01:44.178898,147
2022-07-08 17:01:44.180639,167
2022-07-08 17:01:44.182147,237
2022-07-08 17:01:44.183576,269
2022-07-08 17:01:44.185010,299
2022-07-08 17:01:44.186782,367
2022-07-08 17:01:44.189259,396
2022-07-08 17:01:44.191461,473
2022-07-08 17:01:44.365709,543
2022-07-08 17:01:44.367973,557
2022-07-08 17:01:44.370050,593
2022-07-08 17:01:44.371909,553
2022-07-08 17:01:44.373610,509
2022-07-08 17:01:44.375119,496
2022-07-08 17:01:44.376574,385
2022-07-08 17:01:44.378412,233
2022-07-08 17:01:44.380237,54
2022-07-08 17:01:44.381791,-117
2022-07-08 17:01:44.383350,-231
2022-07-08 17:01:44.384873,-315
2022-07-08 17:01:44.386650,-351
2022-07-08 17:01:44.388863,-405
2022-07-08 17:01:44.390526,-432
2022-07-08 17:01:44.392369,-392
2022-07-08 17:01:44.393948,-385
2022-07-08 17:01:44.395667,-351
2022-07-08 17:01:44.397247,-315
2022-07-08 17:01:44.398724,-312
2022-07-08 17:01:44.401422,-256
2022-07-08 17:01:44.403114,-233
2022-07-08 17:01:44.405083,-217
2022-07-08 17:01:44.406553,-158
2022-07-08 17:01:44.407936,-158
2022-07-08 17:01:44.409390,-124
2022-07-08 17:01:44.410849,-86
2022-07-08 17:01:44.412293,-86
2022-07-08 17:01:44.413735,-49
2022-07-08 17:01:44.415178,-36
2022-07-08 17:01:44.590552,-18
2022-07-08 17:01:44.592685,4
2022-07-08 17:01:44.594499,-2
2022-07-08 17:01:44.596177,29
2022-07-08 17:01:44.597853,18
2022-07-08 17:01:44.599487,-33
2022-07-08 17:01:44.601011,-81
2022-07-08 17:01:44.602662,-113
2022-07-08 17:01:44.604639,-65
2022-07-08 17:01:44.606390,-54
2022-07-08 17:01:44.607900,-67
2022-07-08 17:01:44.609303,-36
2022-07-08 17:01:44.610655,-79
2022-07-08 17:01:44.612188,-79
2022-07-08 17:01:44.613573,-27
2022-07-08 17:01:44.615160,-43
2022-07-08 17:01:44.616701,-24
2022-07-08 17:01:44.618169,-13
2022-07-08 17:01:44.619650,-9
2022-07-08 17:01:44.621078,27
2022-07-08 17:01:44.622645,24
2022-07-08 17:01:44.624133,47
2022-07-08 17:01:44.626565,61
2022-07-08 17:01:44.628704,52
2022-07-08 17:01:44.630307,81
2022-07-08 17:01:44.631752,83
2022-07-08 17:01:44.633210,106
2022-07-08 17:01:44.634768,122
2022-07-08 17:01:44.636822,104
2022-07-08 17:01:44.639444,131
2022-07-08 17:01:44.859965,126
2022-07-08 17:01:44.862366,129
2022-07-08 17:01:44.864223,163
2022-07-08 17:01:44.866148,147
2022-07-08 17:01:44.868011,172
2022-07-08 17:01:44.870029,167
2022-07-08 17:01:44.871642,108
2022-07-08 17:01:44.873659,106
2022-07-08 17:01:44.875409,79
2022-07-08 17:01:44.876858,54
2022-07-08 17:01:44.878245,43
2022-07-08 17:01:44.879632,-9
2022-07-08 17:01:44.880982,0
2022-07-08 17:01:44.882334,11
2022-07-08 17:01:44.883680,-24
2022-07-08 17:01:44.885303,-79
2022-07-08 17:01:44.886815,-122
2022-07-08 17:01:44.888285,-86
2022-07-08 17:01:44.889758,-111
2022-07-08 17:01:44.891258,-244
2022-07-08 17:01:44.892737,-199
2022-07-08 17:01:44.894203,360
2022-07-08 17:01:44.897272,1371
2022-07-08 17:01:44.900189,1992
2022-07-08 17:01:44.901970,1439
2022-07-08 17:01:44.903974,172
2022-07-08 17:01:44.906239,-494
2022-07-08 17:01:44.907743,-213
2022-07-08 17:01:44.909459,15
2022-07-08 17:01:44.910956,-131
2022-07-08 17:01:45.040764,-97
2022-07-08 17:01:45.043099,6
2022-07-08 17:01:45.045161,-33
2022-07-08 17:01:45.046853,-54
2022-07-08 17:01:45.048561,-72
2022-07-08 17:01:45.050261,-92
2022-07-08 17:01:45.051986,-92
2022-07-08 17:01:45.053692,-81
2022-07-08 17:01:45.055457,-40
2022-07-08 17:01:45.056997,-86
2022-07-08 17:01:45.058566,-154
2022-07-08 17:01:45.060009,-131
2022-07-08 17:01:45.061453,-95
2022-07-08 17:01:45.062889,-27
2022-07-08 17:01:45.064322,18
2022-07-08 17:01:45.065810,31
2022-07-08 17:01:45.067329,79
2022-07-08 17:01:45.068733,111
2022-07-08 17:01:45.070294,190
2022-07-08 17:01:45.071778,281
2022-07-08 17:01:45.073173,315
2022-07-08 17:01:45.074565,364
2022-07-08 17:01:45.077234,373
2022-07-08 17:01:45.079526,380
2022-07-08 17:01:45.081104,417
2022-07-08 17:01:45.082576,380
2022-07-08 17:01:45.084017,312
2022-07-08 17:01:45.085523,181
2022-07-08 17:01:45.087263,11
2022-07-08 17:01:45.089666,-74
2022-07-08 17:01:45.355045,-154
2022-07-08 17:01:45.357679,-194
2022-07-08 17:01:45.360100,-217
2022-07-08 17:01:45.362215,-299
2022-07-08 17:01:45.364228,-335
2022-07-08 17:01:45.366082,-326
2022-07-08 17:01:45.367875,-290
2022-07-08 17:01:45.369952,-242
2022-07-08 17:01:45.371580,-247
2022-07-08 17:01:45.373054,-247
2022-07-08 17:01:45.374560,-278
2022-07-08 17:01:45.375990,-310
2022-07-08 17:01:45.377387,-278
2022-07-08 17:01:45.379260,-267
2022-07-08 17:01:45.380794,-237
2022-07-08 17:01:45.382325,-222
2022-07-08 17:01:45.383786,-247
2022-07-08 17:01:45.385356,-194
2022-07-08 17:01:45.387381,-156
2022-07-08 17:01:45.389172,-176
2022-07-08 17:01:45.391798,-217
2022-07-08 17:01:45.393499,-276
2022-07-08 17:01:45.395365,-244
2022-07-08 17:01:45.396833,-199
2022-07-08 17:01:45.398298,-190
2022-07-08 17:01:45.399840,-135
2022-07-08 17:01:45.401308,-122
2022-07-08 17:01:45.403037,-129
2022-07-08 17:01:45.405563,-115
2022-07-08 17:01:45.407117,-106
2022-07-08 17:01:45.579988,-54
2022-07-08 17:01:45.582250,-36
2022-07-08 17:01:45.583985,-33
2022-07-08 17:01:45.585739,-24
2022-07-08 17:01:45.587552,-40
2022-07-08 17:01:45.589920,4
2022-07-08 17:01:45.591685,45
2022-07-08 17:01:45.593256,45
2022-07-08 17:01:45.594909,54
2022-07-08 17:01:45.596327,-2
2022-07-08 17:01:45.597741,-18
2022-07-08 17:01:45.599118,29
2022-07-08 17:01:45.600562,31
2022-07-08 17:01:45.602217,22
2022-07-08 17:01:45.603747,-36
2022-07-08 17:01:45.605190,-92
2022-07-08 17:01:45.606732,-74
2022-07-08 17:01:45.608177,-56
2022-07-08 17:01:45.609621,-20
2022-07-08 17:01:45.611006,2
2022-07-08 17:01:45.612392,-20
2022-07-08 17:01:45.613762,-40
2022-07-08 17:01:45.617065,-49
2022-07-08 17:01:45.619600,-2
2022-07-08 17:01:45.621149,38
2022-07-08 17:01:45.622648,31
2022-07-08 17:01:45.624105,43
2022-07-08 17:01:45.625534,29
2022-07-08 17:01:45.627041,31
2022-07-08 17:01:45.628559,81
2022-07-08 17:01:45.761290,88
2022-07-08 17:01:45.763709,113
2022-07-08 17:01:45.765586,117
2022-07-08 17:01:45.767163,88
2022-07-08 17:01:45.768735,111
2022-07-08 17:01:45.770309,129
2022-07-08 17:01:45.771927,149
2022-07-08 17:01:45.773463,156
2022-07-08 17:01:45.775113,99
2022-07-08 17:01:45.776758,74
2022-07-08 17:01:45.778333,97
2022-07-08 17:01:45.780186,142
2022-07-08 17:01:45.781676,176
2022-07-08 17:01:45.783117,156
2022-07-08 17:01:45.784554,138
2022-07-08 17:01:45.786615,81
2022-07-08 17:01:45.788430,11
2022-07-08 17:01:45.790146,36
2022-07-08 17:01:45.791646,61
2022-07-08 17:01:45.793159,61
2022-07-08 17:01:45.794634,40
2022-07-08 17:01:45.796207,-6
2022-07-08 17:01:45.798967,-6
2022-07-08 17:01:45.801242,2
2022-07-08 17:01:45.803197,-38
2022-07-08 17:01:45.805885,-188
2022-07-08 17:01:45.807382,-208
2022-07-08 17:01:45.809038,412
2022-07-08 17:01:45.810450,1411
2022-07-08 17:01:45.811840,1912
2022-07-08 17:01:45.985919,1373
2022-07-08 17:01:45.988912,163
2022-07-08 17:01:45.990858,-435
2022-07-08 17:01:45.992547,-179
2022-07-08 17:01:45.994253,-47
2022-07-08 17:01:45.996076,-183
2022-07-08 17:01:45.997759,-210
2022-07-08 17:01:45.999442,-199
2022-07-08 17:01:46.000960,-251
2022-07-08 17:01:46.002624,-267
2022-07-08 17:01:46.004202,-199
2022-07-08 17:01:46.005866,-163
2022-07-08 17:01:46.007334,-158
2022-07-08 17:01:46.008945,-149
2022-07-08 17:01:46.010421,-174
2022-07-08 17:01:46.011939,-147
2022-07-08 17:01:46.013413,-97
2022-07-08 17:01:46.014888,-104
2022-07-08 17:01:46.016348,-97
2022-07-08 17:01:46.017766,-74
2022-07-08 17:01:46.019146,-38
2022-07-08 17:01:46.020531,13
2022-07-08 17:01:46.023290,45
2022-07-08 17:01:46.024856,115
2022-07-08 17:01:46.026595,192
2022-07-08 17:01:46.028063,237
2022-07-08 17:01:46.029443,287
2022-07-08 17:01:46.030825,312
2022-07-08 17:01:46.032180,351
2022-07-08 17:01:46.033573,405
2022-07-08 17:01:46.255269,410
2022-07-08 17:01:46.257677,385
2022-07-08 17:01:46.259735,308
2022-07-08 17:01:46.261296,203
2022-07-08 17:01:46.262891,101
2022-07-08 17:01:46.264478,-6
2022-07-08 17:01:46.266089,-99
2022-07-08 17:01:46.267632,-206
2022-07-08 17:01:46.269358,-269
2022-07-08 17:01:46.270993,-262
2022-07-08 17:01:46.272476,-269
2022-07-08 17:01:46.273878,-256
2022-07-08 17:01:46.275268,-256
2022-07-08 17:01:46.276651,-294
2022-07-08 17:01:46.278136,-267
2022-07-08 17:01:46.279608,-235
2022-07-08 17:01:46.281140,-222
2022-07-08 17:01:46.282551,-169
2022-07-08 17:01:46.283947,-142
2022-07-08 17:01:46.285335,-138
2022-07-08 17:01:46.286724,-156
2022-07-08 17:01:46.288116,-160
2022-07-08 17:01:46.289502,-115
2022-07-08 17:01:46.292667,-99
2022-07-08 17:01:46.294733,-97
2022-07-08 17:01:46.296307,-83
2022-07-08 17:01:46.297743,-77
2022-07-08 17:01:46.299102,-49
2022-07-08 17:01:46.300456,-33
2022-07-08 17:01:46.301854,-18
2022-07-08 17:01:46.436227,-2
2022-07-08 17:01:46.438681,-40
2022-07-08 17:01:46.440644,-88
2022-07-08 17:01:46.442305,-117
2022-07-08 17:01:46.443905,-113
2022-07-08 17:01:46.445496,-83
2022-07-08 17:01:46.447126,-104
2022-07-08 17:01:46.448720,-90
2022-07-08 17:01:46.450481,-49
2022-07-08 17:01:46.452078,-61
2022-07-08 17:01:46.453529,-40
2022-07-08 17:01:46.454973,-36
2022-07-08 17:01:46.456426,-74
2022-07-08 17:01:46.457866,-70
2022-07-08 17:01:46.459317,-49
2022-07-08 17:01:46.460701,-33
2022-07-08 17:01:46.462192,-27
2022-07-08 17:01:46.463697,-27
2022-07-08 17:01:46.465141,-18
2022-07-08 17:01:46.466537,-13
2022-07-08 17:01:46.467914,13
2022-07-08 17:01:46.469294,-2
2022-07-08 17:01:46.470671,-52
2022-07-08 17:01:46.473450,-36
2022-07-08 17:01:46.475088,-27
2022-07-08 17:01:46.476651,-24
2022-07-08 17:01:46.478066,15
2022-07-08 17:01:46.479423,22
2022-07-08 17:01:46.480774,33
2022-07-08 17:01:46.482131,49
2022-07-08 17:01:46.660234,47
2022-07-08 17:01:46.662436,74
2022-07-08 17:01:46.664211,95
2022-07-08 17:01:46.665886,104
2022-07-08 17:01:46.667470,101
2022-07-08 17:01:46.669036,65
2022-07-08 17:01:46.670496,52
2022-07-08 17:01:46.671909,65
2022-07-08 17:01:46.673426,88
2022-07-08 17:01:46.674877,101
2022-07-08 17:01:46.676283,79
2022-07-08 17:01:46.677758,58
2022-07-08 17:01:46.679149,49
2022-07-08 17:01:46.680532,65
2022-07-08 17:01:46.681909,95
2022-07-08 17:01:46.683290,77
2022-07-08 17:01:46.684820,72
2022-07-08 17:01:46.686248,83
2022-07-08 17:01:46.687627,83
2022-07-08 17:01:46.689110,129
2022-07-08 17:01:46.690495,181
2022-07-08 17:01:46.691879,188
2022-07-08 17:01:46.693354,188
2022-07-08 17:01:46.696363,169
2022-07-08 17:01:46.698026,138
2022-07-08 17:01:46.699598,90
2022-07-08 17:01:46.701041,56
2022-07-08 17:01:46.702728,61
2022-07-08 17:01:46.704554,49
2022-07-08 17:01:46.707009,45
2022-07-08 17:01:46.885169,65
2022-07-08 17:01:46.887469,72
2022-07-08 17:01:46.889314,86
2022-07-08 17:01:46.890990,56
2022-07-08 17:01:46.892682,-77
2022-07-08 17:01:46.894361,-210
2022-07-08 17:01:46.895974,61
2022-07-08 17:01:46.897441,922
2022-07-08 17:01:46.899072,1774
2022-07-08 17:01:46.900692,1720
2022-07-08 17:01:46.902195,509
2022-07-08 17:01:46.903675,-673
2022-07-08 17:01:46.905067,-659
2022-07-08 17:01:46.906651,-235
2022-07-08 17:01:46.908108,-278
2022-07-08 17:01:46.909502,-339
2022-07-08 17:01:46.911070,-251
2022-07-08 17:01:46.912556,-231
2022-07-08 17:01:46.913963,-219
2022-07-08 17:01:46.915367,-165
2022-07-08 17:01:46.916747,-115
2022-07-08 17:01:46.918134,-106
2022-07-08 17:01:46.919512,-104
2022-07-08 17:01:46.922616,-63
2022-07-08 17:01:46.925358,-31
2022-07-08 17:01:46.927277,-6
2022-07-08 17:01:46.928753,0
2022-07-08 17:01:46.930124,-6
2022-07-08 17:01:46.931471,29
2022-07-08 17:01:46.932814,74
2022-07-08 17:01:47.155811,126
2022-07-08 17:01:47.158291,194
2022-07-08 17:01:47.160234,244
2022-07-08 17:01:47.161931,278
2022-07-08 17:01:47.163610,274
2022-07-08 17:01:47.165298,296
2022-07-08 17:01:47.166978,383
2022-07-08 17:01:47.168513,428
2022-07-08 17:01:47.170121,446
2022-07-08 17:01:47.171551,437
2022-07-08 17:01:47.173000,360
2022-07-08 17:01:47.174465,303
2022-07-08 17:01:47.175958,253
2022-07-08 17:01:47.177346,154
2022-07-08 17:01:47.179261,38
2022-07-08 17:01:47.180794,-92
2022-07-08 17:01:47.182260,-181
2022-07-08 17:01:47.183693,-208
2022-07-08 17:01:47.185216,-213
2022-07-08 17:01:47.186937,-206
2022-07-08 17:01:47.188854,-215
2022-07-08 17:01:47.190633,-224
2022-07-08 17:01:47.193995,-217
2022-07-08 17:01:47.195817,-190
2022-07-08 17:01:47.197336,-131
2022-07-08 17:01:47.198812,-97
2022-07-08 17:01:47.200266,-81
2022-07-08 17:01:47.201731,-81
2022-07-08 17:01:47.203732,-113
2022-07-08 17:01:47.206371,-90
2022-07-08 17:01:47.425052,-43
2022-07-08 17:01:47.427506,-22
2022-07-08 17:01:47.429384,-11
2022-07-08 17:01:47.431002,-40
2022-07-08 17:01:47.432584,-52
2022-07-08 17:01:47.434177,-11
2022-07-08 17:01:47.435728,13
2022-07-08 17:01:47.437111,38
2022-07-08 17:01:47.438630,40
2022-07-08 17:01:47.440170,13
2022-07-08 17:01:47.441621,13
2022-07-08 17:01:47.443007,33
2022-07-08 17:01:47.444482,58
2022-07-08 17:01:47.445873,22
2022-07-08 17:01:47.447229,-70
2022-07-08 17:01:47.448594,-122
2022-07-08 17:01:47.450107,-120
2022-07-08 17:01:47.451500,-86
2022-07-08 17:01:47.452867,-56
2022-07-08 17:01:47.454392,-47
2022-07-08 17:01:47.455897,-29
2022-07-08 17:01:47.457265,-45
2022-07-08 17:01:47.458838,-47
2022-07-08 17:01:47.462270,-2
2022-07-08 17:01:47.464077,20
2022-07-08 17:01:47.465630,38
2022-07-08 17:01:47.467091,47
2022-07-08 17:01:47.468702,27
2022-07-08 17:01:47.470663,40
2022-07-08 17:01:47.473043,45
2022-07-08 17:01:47.695591,24
2022-07-08 17:01:47.697930,24
2022-07-08 17:01:47.699750,15
2022-07-08 17:01:47.701342,9
2022-07-08 17:01:47.702878,13
2022-07-08 17:01:47.704384,43
2022-07-08 17:01:47.705898,79
2022-07-08 17:01:47.707435,74
2022-07-08 17:01:47.708866,40
2022-07-08 17:01:47.710416,0
2022-07-08 17:01:47.712013,2
2022-07-08 17:01:47.713569,52
2022-07-08 17:01:47.715046,63
2022-07-08 17:01:47.716518,54
2022-07-08 17:01:47.717972,15
2022-07-08 17:01:47.719457,-31
2022-07-08 17:01:47.720852,6
2022-07-08 17:01:47.722438,67
2022-07-08 17:01:47.723932,90
2022-07-08 17:01:47.725438,108
2022-07-08 17:01:47.726912,99
2022-07-08 17:01:47.728358,95
2022-07-08 17:01:47.729821,97
2022-07-08 17:01:47.732571,101
2022-07-08 17:01:47.734854,135
2022-07-08 17:01:47.736629,135
2022-07-08 17:01:47.738641,115
2022-07-08 17:01:47.740811,115
2022-07-08 17:01:47.742230,106
2022-07-08 17:01:47.743623,104
2022-07-08 17:01:47.830799,77
2022-07-08 17:01:47.833246,-24
2022-07-08 17:01:47.835134,-179
2022-07-08 17:01:47.836781,-33
2022-07-08 17:01:47.838372,752
2022-07-08 17:01:47.839959,1699
2022-07-08 17:01:47.841669,1944
2022-07-08 17:01:47.843237,1112
2022-07-08 17:01:47.844900,-90
2022-07-08 17:01:47.846308,-403
2022-07-08 17:01:47.847684,-40
2022-07-08 17:01:47.849199,-29
2022-07-08 17:01:47.850663,-188
2022-07-08 17:01:47.852125,-179
2022-07-08 17:01:47.853569,-203
2022-07-08 17:01:47.855016,-240
2022-07-08 17:01:47.856546,-206
2022-07-08 17:01:47.858604,-154
2022-07-08 17:01:47.860764,-154
2022-07-08 17:01:47.862602,-194
2022-07-08 17:01:47.864045,-197
2022-07-08 17:01:47.865439,-174
2022-07-08 17:01:47.868312,-135
2022-07-08 17:01:47.870911,-88
2022-07-08 17:01:47.872576,-67
2022-07-08 17:01:47.874297,-40
2022-07-08 17:01:47.876128,-11
2022-07-08 17:01:47.877597,22
2022-07-08 17:01:47.878982,79
2022-07-08 17:01:47.880493,131
2022-07-08 17:01:48.100952,192
2022-07-08 17:01:48.103354,237
2022-07-08 17:01:48.105238,271
2022-07-08 17:01:48.106821,312
2022-07-08 17:01:48.108548,303
2022-07-08 17:01:48.110170,308
2022-07-08 17:01:48.111937,326
2022-07-08 17:01:48.113433,267
2022-07-08 17:01:48.115031,203
2022-07-08 17:01:48.116480,131
2022-07-08 17:01:48.117929,22
2022-07-08 17:01:48.119324,-74
2022-07-08 17:01:48.120714,-192
2022-07-08 17:01:48.122099,-296
2022-07-08 17:01:48.123476,-344
2022-07-08 17:01:48.124869,-358
2022-07-08 17:01:48.126409,-342
2022-07-08 17:01:48.127878,-333
2022-07-08 17:01:48.129435,-321
2022-07-08 17:01:48.130871,-305
2022-07-08 17:01:48.132241,-292
2022-07-08 17:01:48.133693,-249
2022-07-08 17:01:48.135065,-224
2022-07-08 17:01:48.137725,-197
2022-07-08 17:01:48.139824,-160
2022-07-08 17:01:48.141583,-160
2022-07-08 17:01:48.143008,-126
2022-07-08 17:01:48.144460,-97
2022-07-08 17:01:48.145882,-99
2022-07-08 17:01:48.147255,-52
2022-07-08 17:01:48.326171,-43
2022-07-08 17:01:48.328553,-38
2022-07-08 17:01:48.330431,-2
2022-07-08 17:01:48.332000,-11
2022-07-08 17:01:48.333568,9
2022-07-08 17:01:48.335130,20
2022-07-08 17:01:48.336708,-9
2022-07-08 17:01:48.338246,4
2022-07-08 17:01:48.339817,11
2022-07-08 17:01:48.341333,20
2022-07-08 17:01:48.342743,36
2022-07-08 17:01:48.344124,20
2022-07-08 17:01:48.345504,2
2022-07-08 17:01:48.346888,-22
2022-07-08 17:01:48.348281,-4
2022-07-08 17:01:48.349680,22
2022-07-08 17:01:48.351240,6
2022-07-08 17:01:48.352665,15
2022-07-08 17:01:48.354071,-6
2022-07-08 17:01:48.355489,-24
2022-07-08 17:01:48.357083,18
2022-07-08 17:01:48.359129,18
2022-07-08 17:01:48.362105,27
2022-07-08 17:01:48.364514,45
2022-07-08 17:01:48.366335,0
2022-07-08 17:01:48.367796,-45
2022-07-08 17:01:48.369813,-65
2022-07-08 17:01:48.372264,-54
2022-07-08 17:01:48.374221,-36
2022-07-08 17:01:48.376042,-49
2022-07-08 17:01:48.505626,-31
2022-07-08 17:01:48.507992,0
2022-07-08 17:01:48.509785,22
2022-07-08 17:01:48.511370,43
2022-07-08 17:01:48.512952,22
2022-07-08 17:01:48.514520,4
2022-07-08 17:01:48.516084,-13
2022-07-08 17:01:48.517652,-31
2022-07-08 17:01:48.519297,-38
2022-07-08 17:01:48.520838,-67
2022-07-08 17:01:48.522272,-74
2022-07-08 17:01:48.523715,-81
2022-07-08 17:01:48.525103,-115
2022-07-08 17:01:48.526520,-81
2022-07-08 17:01:48.527925,-54
2022-07-08 17:01:48.529380,-63
2022-07-08 17:01:48.530908,-47
2022-07-08 17:01:48.532366,-43
2022-07-08 17:01:48.533817,-27
2022-07-08 17:01:48.535277,-13
2022-07-08 17:01:48.536746,-36
2022-07-08 17:01:48.538213,-29
2022-07-08 17:01:48.539621,-29
2022-07-08 17:01:48.542308,-40
2022-07-08 17:01:48.543930,-38
2022-07-08 17:01:48.545521,-29
2022-07-08 17:01:48.546898,-2
2022-07-08 17:01:48.548325,0
2022-07-08 17:01:48.549693,-15
2022-07-08 17:01:48.551089,-4
2022-07-08 17:01:48.730813,-6
2022-07-08 17:01:48.733281,-13
2022-07-08 17:01:48.735306,-65
2022-07-08 17:01:48.737005,-240
2022-07-08 17:01:48.738720,-328
2022-07-08 17:01:48.740301,104
2022-07-08 17:01:48.741968,1051
2022-07-08 17:01:48.743565,1745
2022-07-08 17:01:48.745237,1396
2022-07-08 17:01:48.746797,215
2022-07-08 17:01:48.748311,-587
2022-07-08 17:01:48.749783,-451
2022-07-08 17:01:48.751262,-194
2022-07-08 17:01:48.752732,-285
2022-07-08 17:01:48.754185,-299
2022-07-08 17:01:48.755656,-213
2022-07-08 17:01:48.757151,-233
2022-07-08 17:01:48.758568,-222
2022-07-08 17:01:48.760031,-156
2022-07-08 17:01:48.761556,-111
2022-07-08 17:01:48.762947,-77
2022-07-08 17:01:48.764338,-61
2022-07-08 17:01:48.766673,-36
2022-07-08 17:01:48.768395,-9
2022-07-08 17:01:48.770019,29
2022-07-08 17:01:48.772055,90
2022-07-08 17:01:48.774309,122
2022-07-08 17:01:48.775851,151
2022-07-08 17:01:48.777344,183
2022-07-08 17:01:48.779189,208
2022-07-08 17:01:48.955703,231
2022-07-08 17:01:48.958254,217
2022-07-08 17:01:48.960214,242
2022-07-08 17:01:48.961913,287
2022-07-08 17:01:48.963588,262
2022-07-08 17:01:48.965278,276
2022-07-08 17:01:48.966937,339
2022-07-08 17:01:48.968475,373
2022-07-08 17:01:48.970001,392
2022-07-08 17:01:48.971497,346
2022-07-08 17:01:48.973186,249
2022-07-08 17:01:48.974965,135
2022-07-08 17:01:48.976432,0
2022-07-08 17:01:48.978368,-108
2022-07-08 17:01:48.979895,-188
2022-07-08 17:01:48.981533,-265
2022-07-08 17:01:48.983004,-312
2022-07-08 17:01:48.984372,-319
2022-07-08 17:01:48.985851,-285
2022-07-08 17:01:48.987362,-258
2022-07-08 17:01:48.989462,-242
2022-07-08 17:01:48.992365,-226
2022-07-08 17:01:48.994704,-228
2022-07-08 17:01:48.996372,-188
2022-07-08 17:01:48.997860,-131
2022-07-08 17:01:48.999279,-104
2022-07-08 17:01:49.000822,-72
2022-07-08 17:01:49.002293,-74
2022-07-08 17:01:49.004123,-74
2022-07-08 17:01:49.006400,-33
2022-07-08 17:01:49.270118,-6
2022-07-08 17:01:49.272631,27
2022-07-08 17:01:49.274550,38
2022-07-08 17:01:49.276157,-11
2022-07-08 17:01:49.277743,-38
2022-07-08 17:01:49.279335,-11
2022-07-08 17:01:49.280938,31
2022-07-08 17:01:49.282465,49
2022-07-08 17:01:49.284206,33
2022-07-08 17:01:49.285806,6
2022-07-08 17:01:49.287261,-15
2022-07-08 17:01:49.288624,9
2022-07-08 17:01:49.289994,45
2022-07-08 17:01:49.291366,38
2022-07-08 17:01:49.292741,11
2022-07-08 17:01:49.294180,-33
2022-07-08 17:01:49.295797,-40
2022-07-08 17:01:49.297248,9
2022-07-08 17:01:49.298648,29
2022-07-08 17:01:49.300031,47
2022-07-08 17:01:49.301403,58
2022-07-08 17:01:49.302780,29
2022-07-08 17:01:49.304148,33
2022-07-08 17:01:49.307127,63
2022-07-08 17:01:49.309395,86
2022-07-08 17:01:49.311135,113
2022-07-08 17:01:49.312599,108
2022-07-08 17:01:49.314021,95
2022-07-08 17:01:49.315392,99
2022-07-08 17:01:49.316757,126
2022-07-08 17:01:49.539856,160
2022-07-08 17:01:49.542250,165
2022-07-08 17:01:49.544146,160
2022-07-08 17:01:49.545717,149
2022-07-08 17:01:49.547281,140
2022-07-08 17:01:49.548850,140
2022-07-08 17:01:49.550434,86
2022-07-08 17:01:49.552000,43
2022-07-08 17:01:49.553653,31
2022-07-08 17:01:49.555200,-20
2022-07-08 17:01:49.556640,-15
2022-07-08 17:01:49.558035,29
2022-07-08 17:01:49.559411,43
2022-07-08 17:01:49.560914,56
2022-07-08 17:01:49.562313,38
2022-07-08 17:01:49.563755,2
2022-07-08 17:01:49.565317,-22
2022-07-08 17:01:49.566862,-31
2022-07-08 17:01:49.568279,2
2022-07-08 17:01:49.569746,11
2022-07-08 17:01:49.571217,-13
2022-07-08 17:01:49.572616,-13
2022-07-08 17:01:49.574076,0
2022-07-08 17:01:49.577120,31
2022-07-08 17:01:49.579079,45
2022-07-08 17:01:49.580680,15
2022-07-08 17:01:49.582046,-15
2022-07-08 17:01:49.583409,-36
2022-07-08 17:01:49.584761,-27
2022-07-08 17:01:49.586237,-2
2022-07-08 17:01:49.676233,15
2022-07-08 17:01:49.678749,52
2022-07-08 17:01:49.680757,56
2022-07-08 17:01:49.682462,38
2022-07-08 17:01:49.684112,49
2022-07-08 17:01:49.685808,63
2022-07-08 17:01:49.687584,61
2022-07-08 17:01:49.689263,-4
2022-07-08 17:01:49.690953,-86
2022-07-08 17:01:49.692526,-111
2022-07-08 17:01:49.694049,-133
2022-07-08 17:01:49.695446,-135
2022-07-08 17:01:49.696897,-120
2022-07-08 17:01:49.698265,-156
2022-07-08 17:01:49.699819,-199
2022-07-08 17:01:49.701216,-267
2022-07-08 17:01:49.702688,-371
2022-07-08 17:01:49.704117,-233
2022-07-08 17:01:49.705551,432
2022-07-08 17:01:49.706983,1334
2022-07-08 17:01:49.708415,1636
2022-07-08 17:01:49.709886,852
2022-07-08 17:01:49.712503,-265
2022-07-08 17:01:49.714253,-553
2022-07-08 17:01:49.715864,-208
2022-07-08 17:01:49.717280,-138
2022-07-08 17:01:49.718640,-251
2022-07-08 17:01:49.719998,-185
2022-07-08 17:01:49.721671,-122
2022-07-08 17:01:49.723913,-126
2022-07-08 17:01:49.945689,-83
2022-07-08 17:01:49.948111,-56
2022-07-08 17:01:49.950007,-43
2022-07-08 17:01:49.951579,-15
2022-07-08 17:01:49.953145,13
2022-07-08 17:01:49.954713,58
2022-07-08 17:01:49.956325,72
2022-07-08 17:01:49.957818,56
2022-07-08 17:01:49.959551,67
2022-07-08 17:01:49.961024,101
2022-07-08 17:01:49.962444,142
2022-07-08 17:01:49.963863,149
2022-07-08 17:01:49.965250,106
2022-07-08 17:01:49.966632,88
2022-07-08 17:01:49.968042,126
2022-07-08 17:01:49.969437,190
2022-07-08 17:01:49.970996,233
2022-07-08 17:01:49.972424,278
2022-07-08 17:01:49.974092,326
2022-07-08 17:01:49.975729,328
2022-07-08 17:01:49.977144,310
2022-07-08 17:01:49.979024,290
2022-07-08 17:01:49.980670,265
2022-07-08 17:01:49.983548,237
2022-07-08 17:01:49.985209,145
2022-07-08 17:01:49.986706,29
2022-07-08 17:01:49.988523,-47
2022-07-08 17:01:49.991085,-129
2022-07-08 17:01:49.992642,-183
2022-07-08 17:01:49.994135,-197
2022-07-08 17:01:50.215652,-206
2022-07-08 17:01:50.218102,-197
2022-07-08 17:01:50.220006,-185
2022-07-08 17:01:50.221596,-174
2022-07-08 17:01:50.223189,-151
2022-07-08 17:01:50.224884,-140
2022-07-08 17:01:50.226610,-156
2022-07-08 17:01:50.228113,-169
2022-07-08 17:01:50.229788,-140
2022-07-08 17:01:50.231233,-108
2022-07-08 17:01:50.232625,-99
2022-07-08 17:01:50.234006,-77
2022-07-08 17:01:50.235383,-72
2022-07-08 17:01:50.236747,-74
2022-07-08 17:01:50.238113,-43
2022-07-08 17:01:50.239568,-27
2022-07-08 17:01:50.241194,-18
2022-07-08 17:01:50.242667,-4
2022-07-08 17:01:50.244063,-15
2022-07-08 17:01:50.245439,-4
2022-07-08 17:01:50.246827,22
2022-07-08 17:01:50.248200,15
2022-07-08 17:01:50.249895,-20
2022-07-08 17:01:50.253662,-54
2022-07-08 17:01:50.255414,-45
2022-07-08 17:01:50.256940,-22
2022-07-08 17:01:50.258522,-13
2022-07-08 17:01:50.259895,-2
2022-07-08 17:01:50.261425,4
2022-07-08 17:01:50.262797,15
2022-07-08 17:01:50.351254,27
2022-07-08 17:01:50.353706,38
2022-07-08 17:01:50.355627,63
2022-07-08 17:01:50.357408,61
2022-07-08 17:01:50.359861,52
2022-07-08 17:01:50.362048,31
2022-07-08 17:01:50.363833,0
2022-07-08 17:01:50.365575,15
2022-07-08 17:01:50.367202,47
2022-07-08 17:01:50.368779,45
2022-07-08 17:01:50.370244,36
2022-07-08 17:01:50.371865,11
2022-07-08 17:01:50.373368,-6
2022-07-08 17:01:50.374817,15
2022-07-08 17:01:50.376355,33
2022-07-08 17:01:50.378354,40
2022-07-08 17:01:50.380602,43
2022-07-08 17:01:50.382193,22
2022-07-08 17:01:50.383685,-18
2022-07-08 17:01:50.385085,-22
2022-07-08 17:01:50.387884,9
2022-07-08 17:01:50.390979,13
2022-07-08 17:01:50.392531,4
2022-07-08 17:01:50.394085,-2
2022-07-08 17:01:50.395562,-33
2022-07-08 17:01:50.396976,-49
2022-07-08 17:01:50.398403,-24
2022-07-08 17:01:50.399855,-18
2022-07-08 17:01:50.401216,-22
2022-07-08 17:01:50.402723,-22
2022-07-08 17:01:50.620667,-6
2022-07-08 17:01:50.623112,27
2022-07-08 17:01:50.625205,47
2022-07-08 17:01:50.626945,47
2022-07-08 17:01:50.628762,4
2022-07-08 17:01:50.630475,-54
2022-07-08 17:01:50.632173,-52
2022-07-08 17:01:50.633694,-22
2022-07-08 17:01:50.635279,-15
2022-07-08 17:01:50.636680,-24
2022-07-08 17:01:50.638070,-61
2022-07-08 17:01:50.639444,-95
2022-07-08 17:01:50.640947,-77
2022-07-08 17:01:50.642414,-18
2022-07-08 17:01:50.643867,27
2022-07-08 17:01:50.645306,15
2022-07-08 17:01:50.646769,-13
2022-07-08 17:01:50.648281,-33
2022-07-08 17:01:50.649742,-49
2022-07-08 17:01:50.651194,-77
2022-07-08 17:01:50.652595,-108
2022-07-08 17:01:50.653963,-113
2022-07-08 17:01:50.655346,-117
2022-07-08 17:01:50.658477,-129
2022-07-08 17:01:50.660142,-108
2022-07-08 17:01:50.661760,-97
2022-07-08 17:01:50.663176,-129
2022-07-08 17:01:50.664556,-192
2022-07-08 17:01:50.665937,-315
2022-07-08 17:01:50.667297,-346
2022-07-08 17:01:50.800769,101
2022-07-08 17:01:50.803207,1060
2022-07-08 17:01:50.805125,1838
2022-07-08 17:01:50.806740,1547
2022-07-08 17:01:50.808360,269
2022-07-08 17:01:50.809961,-600
2022-07-08 17:01:50.811540,-383
2022-07-08 17:01:50.813079,-65
2022-07-08 17:01:50.814735,-158
2022-07-08 17:01:50.816228,-206
2022-07-08 17:01:50.817613,-158
2022-07-08 17:01:50.818994,-169
2022-07-08 17:01:50.820362,-140
2022-07-08 17:01:50.821728,-67
2022-07-08 17:01:50.823122,-33
2022-07-08 17:01:50.824504,-33
2022-07-08 17:01:50.826088,-33
2022-07-08 17:01:50.827615,11
2022-07-08 17:01:50.829093,65
2022-07-08 17:01:50.830466,97
2022-07-08 17:01:50.831841,138
2022-07-08 17:01:50.833203,160
2022-07-08 17:01:50.834568,147
2022-07-08 17:01:50.836489,135
2022-07-08 17:01:50.839119,138
2022-07-08 17:01:50.840863,188
2022-07-08 17:01:50.842401,253
2022-07-08 17:01:50.843885,292
2022-07-08 17:01:50.845364,324
2022-07-08 17:01:50.847034,351
2022-07-08 17:01:51.070764,398
2022-07-08 17:01:51.073239,453
2022-07-08 17:01:51.075159,469
2022-07-08 17:01:51.076772,430
2022-07-08 17:01:51.078389,360
2022-07-08 17:01:51.079956,312
2022-07-08 17:01:51.081648,262
2022-07-08 17:01:51.083362,158
2022-07-08 17:01:51.085229,27
2022-07-08 17:01:51.086781,-117
2022-07-08 17:01:51.088262,-222
2022-07-08 17:01:51.089736,-247
2022-07-08 17:01:51.091164,-251
2022-07-08 17:01:51.092800,-247
2022-07-08 17:01:51.094237,-242
2022-07-08 17:01:51.095697,-258
2022-07-08 17:01:51.097249,-244
2022-07-08 17:01:51.098732,-199
2022-07-08 17:01:51.100199,-163
2022-07-08 17:01:51.101670,-129
2022-07-08 17:01:51.103138,-108
2022-07-08 17:01:51.104611,-108
2022-07-08 17:01:51.107136,-99
2022-07-08 17:01:51.109897,-61
2022-07-08 17:01:51.111483,-18
2022-07-08 17:01:51.112861,0
2022-07-08 17:01:51.114233,6
2022-07-08 17:01:51.115583,2
2022-07-08 17:01:51.116935,9
2022-07-08 17:01:51.118300,38
2022-07-08 17:01:51.296226,29
2022-07-08 17:01:51.298627,0
2022-07-08 17:01:51.300499,-6
2022-07-08 17:01:51.302070,-18
2022-07-08 17:01:51.303682,-15
2022-07-08 17:01:51.305249,11
2022-07-08 17:01:51.306886,33
2022-07-08 17:01:51.308475,43
2022-07-08 17:01:51.310158,9
2022-07-08 17:01:51.311641,-36
2022-07-08 17:01:51.313039,-27
2022-07-08 17:01:51.314461,4
2022-07-08 17:01:51.315851,27
2022-07-08 17:01:51.317252,31
2022-07-08 17:01:51.318626,-2
2022-07-08 17:01:51.320015,-40
2022-07-08 17:01:51.321560,-29
2022-07-08 17:01:51.322982,11
2022-07-08 17:01:51.324393,31
2022-07-08 17:01:51.325790,36
2022-07-08 17:01:51.327285,38
2022-07-08 17:01:51.328679,29
2022-07-08 17:01:51.330053,40
2022-07-08 17:01:51.332128,72
2022-07-08 17:01:51.334401,88
2022-07-08 17:01:51.336053,99
2022-07-08 17:01:51.337596,97
2022-07-08 17:01:51.339255,83
2022-07-08 17:01:51.341502,54
2022-07-08 17:01:51.343513,0
2022-07-08 17:01:51.565305,-4
2022-07-08 17:01:51.567617,9
2022-07-08 17:01:51.569506,-49
2022-07-08 17:01:51.571082,-113
2022-07-08 17:01:51.572645,-104
2022-07-08 17:01:51.574205,-65
2022-07-08 17:01:51.575897,-54
2022-07-08 17:01:51.577598,-79
2022-07-08 17:01:51.579728,-117
2022-07-08 17:01:51.581329,-129
2022-07-08 17:01:51.582783,-104
2022-07-08 17:01:51.584284,-77
2022-07-08 17:01:51.585728,-72
2022-07-08 17:01:51.587164,-106
2022-07-08 17:01:51.588802,-169
2022-07-08 17:01:51.591050,-190
2022-07-08 17:01:51.592714,-163
2022-07-08 17:01:51.594230,-160
2022-07-08 17:01:51.595709,-165
2022-07-08 17:01:51.597208,-154
2022-07-08 17:01:51.598589,-163
2022-07-08 17:01:51.599975,-176
2022-07-08 17:01:51.602935,-176
2022-07-08 17:01:51.604530,-151
2022-07-08 17:01:51.606115,-126
2022-07-08 17:01:51.607672,-135
2022-07-08 17:01:51.609126,-138
2022-07-08 17:01:51.610571,-120
2022-07-08 17:01:51.611949,-104
2022-07-08 17:01:51.613345,-79
2022-07-08 17:01:51.880120,-124
2022-07-08 17:01:51.882789,-249
2022-07-08 17:01:51.884781,-126
2022-07-08 17:01:51.886758,577
2022-07-08 17:01:51.888724,1538
2022-07-08 17:01:51.890358,1869
2022-07-08 17:01:51.892237,1058
2022-07-08 17:01:51.893864,-188
2022-07-08 17:01:51.895402,-582
2022-07-08 17:01:51.896887,-208
2022-07-08 17:01:51.898251,-79
2022-07-08 17:01:51.899804,-185
2022-07-08 17:01:51.901195,-145
2022-07-08 17:01:51.902556,-131
2022-07-08 17:01:51.903977,-163
2022-07-08 17:01:51.905654,-120
2022-07-08 17:01:51.907782,-72
2022-07-08 17:01:51.909313,-45
2022-07-08 17:01:51.910719,-13
2022-07-08 17:01:51.912112,13
2022-07-08 17:01:51.913491,45
2022-07-08 17:01:51.915980,72
2022-07-08 17:01:51.918969,113
2022-07-08 17:01:51.921255,156
2022-07-08 17:01:51.922797,183
2022-07-08 17:01:51.924317,215
2022-07-08 17:01:51.925867,258
2022-07-08 17:01:51.927326,301
2022-07-08 17:01:51.928782,349
2022-07-08 17:01:51.930404,398
2022-07-08 17:01:51.970745,453
2022-07-08 17:01:51.973638,491
2022-07-08 17:01:51.976169,530
2022-07-08 17:01:51.977920,546
2022-07-08 17:01:51.980096,491
2022-07-08 17:01:51.981897,457
2022-07-08 17:01:51.983420,453
2022-07-08 17:01:51.985003,387
2022-07-08 17:01:51.986455,290
2022-07-08 17:01:51.988163,179
2022-07-08 17:01:51.990417,63
2022-07-08 17:01:51.992072,-47
2022-07-08 17:01:51.993591,-172
2022-07-08 17:01:51.995144,-247
2022-07-08 17:01:51.996657,-262
2022-07-08 17:01:51.998157,-271
2022-07-08 17:01:51.999621,-269
2022-07-08 17:01:52.001078,-258
2022-07-08 17:01:52.002528,-237
2022-07-08 17:01:52.004061,-215
2022-07-08 17:01:52.006410,-188
2022-07-08 17:01:52.008920,-156
2022-07-08 17:01:52.010613,-140
2022-07-08 17:01:52.012045,-140
2022-07-08 17:01:52.013428,-163
2022-07-08 17:01:52.014863,-160
2022-07-08 17:01:52.016312,-108
2022-07-08 17:01:52.017978,-95
2022-07-08 17:01:52.019479,-92
2022-07-08 17:01:52.021073,-65
2022-07-08 17:01:52.374330,-77
2022-07-08 17:01:52.376715,-61
2022-07-08 17:01:52.378533,-24
2022-07-08 17:01:52.380639,-31
2022-07-08 17:01:52.382535,-22
2022-07-08 17:01:52.384431,-45
2022-07-08 17:01:52.386250,-81
2022-07-08 17:01:52.388299,-67
2022-07-08 17:01:52.390347,-81
2022-07-08 17:01:52.392237,-117
2022-07-08 17:01:52.393872,-131
2022-07-08 17:01:52.395459,-140
2022-07-08 17:01:52.397096,-147
2022-07-08 17:01:52.398686,-138
2022-07-08 17:01:52.400257,-99
2022-07-08 17:01:52.401790,-86
2022-07-08 17:01:52.403293,-95
2022-07-08 17:01:52.404874,-70
2022-07-08 17:01:52.406379,-63
2022-07-08 17:01:52.407879,-40
2022-07-08 17:01:52.411273,0
2022-07-08 17:01:52.413658,-4
2022-07-08 17:01:52.415362,4
2022-07-08 17:01:52.416775,15
2022-07-08 17:01:52.418231,11
2022-07-08 17:01:52.419686,43
2022-07-08 17:01:52.421220,58
2022-07-08 17:01:52.423863,65
2022-07-08 17:01:52.425675,72
2022-07-08 17:01:52.427091,63
2022-07-08 17:01:52.465689,88
2022-07-08 17:01:52.468168,108
2022-07-08 17:01:52.470228,111
2022-07-08 17:01:52.472380,92
2022-07-08 17:01:52.474828,38
2022-07-08 17:01:52.476502,38
2022-07-08 17:01:52.477957,63
2022-07-08 17:01:52.479602,65
2022-07-08 17:01:52.481122,86
2022-07-08 17:01:52.482590,54
2022-07-08 17:01:52.484036,-15
2022-07-08 17:01:52.485426,-67
2022-07-08 17:01:52.486880,-70
2022-07-08 17:01:52.488359,-20
2022-07-08 17:01:52.490051,-24
2022-07-08 17:01:52.491728,-67
2022-07-08 17:01:52.493217,-99
2022-07-08 17:01:52.494670,-149
2022-07-08 17:01:52.496142,-160
2022-07-08 17:01:52.497560,-151
2022-07-08 17:01:52.498935,-151
2022-07-08 17:01:52.500314,-154
2022-07-08 17:01:52.502586,-208
2022-07-08 17:01:52.504507,-231
2022-07-08 17:01:52.506393,-201
2022-07-08 17:01:52.507884,-192
2022-07-08 17:01:52.509346,-174
2022-07-08 17:01:52.510801,-167
2022-07-08 17:01:52.512329,-165
2022-07-08 17:01:52.513966,-135
2022-07-08 17:01:52.646331,-120
2022-07-08 17:01:52.648786,-81
2022-07-08 17:01:52.650685,-63
2022-07-08 17:01:52.652280,-111
2022-07-08 17:01:52.653879,-158
2022-07-08 17:01:52.655469,-176
2022-07-08 17:01:52.657091,-133
2022-07-08 17:01:52.658771,-95
2022-07-08 17:01:52.660728,-106
2022-07-08 17:01:52.662248,-111
2022-07-08 17:01:52.663663,-149
2022-07-08 17:01:52.665051,-169
2022-07-08 17:01:52.666437,-222
2022-07-08 17:01:52.667806,-373
2022-07-08 17:01:52.669198,-176
2022-07-08 17:01:52.670848,598
2022-07-08 17:01:52.672417,1473
2022-07-08 17:01:52.673834,1717
2022-07-08 17:01:52.675223,911
2022-07-08 17:01:52.676615,-179
2022-07-08 17:01:52.678075,-412
2022-07-08 17:01:52.679457,-106
2022-07-08 17:01:52.680831,-65
2022-07-08 17:01:52.683484,-163
2022-07-08 17:01:52.685316,-86
2022-07-08 17:01:52.686958,-6
2022-07-08 17:01:52.688998,-31
2022-07-08 17:01:52.691356,-9
2022-07-08 17:01:52.692889,22
2022-07-08 17:01:52.694414,38
2022-07-08 17:01:52.916309,97
2022-07-08 17:01:52.918731,135
2022-07-08 17:01:52.920604,154
2022-07-08 17:01:52.922189,135
2022-07-08 17:01:52.923757,97
2022-07-08 17:01:52.925432,147
2022-07-08 17:01:52.927178,206
2022-07-08 17:01:52.928587,240
2022-07-08 17:01:52.930140,283
2022-07-08 17:01:52.931569,265
2022-07-08 17:01:52.932956,265
2022-07-08 17:01:52.934352,328
2022-07-08 17:01:52.935895,389
2022-07-08 17:01:52.937293,451
2022-07-08 17:01:52.938674,466
2022-07-08 17:01:52.940065,417
2022-07-08 17:01:52.941562,355
2022-07-08 17:01:52.943042,355
2022-07-08 17:01:52.944521,403
2022-07-08 17:01:52.945987,380
2022-07-08 17:01:52.947468,301
2022-07-08 17:01:52.948935,192
2022-07-08 17:01:52.950438,52
2022-07-08 17:01:52.953717,-18
2022-07-08 17:01:52.955316,-58
2022-07-08 17:01:52.956909,-115
2022-07-08 17:01:52.958386,-147
2022-07-08 17:01:52.959836,-194
2022-07-08 17:01:52.961231,-206
2022-07-08 17:01:52.962588,-169
2022-07-08 17:01:53.185470,-149
2022-07-08 17:01:53.188019,-115
2022-07-08 17:01:53.190481,-104
2022-07-08 17:01:53.192409,-117
2022-07-08 17:01:53.194155,-95
2022-07-08 17:01:53.195876,-65
2022-07-08 17:01:53.197417,-29
2022-07-08 17:01:53.198961,-6
2022-07-08 17:01:53.200614,-36
2022-07-08 17:01:53.202096,-67
2022-07-08 17:01:53.203555,-61
2022-07-08 17:01:53.205019,-20
2022-07-08 17:01:53.206459,9
2022-07-08 17:01:53.208008,6
2022-07-08 17:01:53.209457,-11
2022-07-08 17:01:53.210901,-54
2022-07-08 17:01:53.212526,-77
2022-07-08 17:01:53.213978,-81
2022-07-08 17:01:53.215454,-90
2022-07-08 17:01:53.216832,-67
2022-07-08 17:01:53.218210,-63
2022-07-08 17:01:53.219587,-86
2022-07-08 17:01:53.223234,-61
2022-07-08 17:01:53.225255,-29
2022-07-08 17:01:53.226693,-4
2022-07-08 17:01:53.228074,9
2022-07-08 17:01:53.229564,-4
2022-07-08 17:01:53.231069,-6
2022-07-08 17:01:53.232530,6
2022-07-08 17:01:53.234009,29
2022-07-08 17:01:53.365856,58
2022-07-08 17:01:53.367897,63
2022-07-08 17:01:53.369508,58
2022-07-08 17:01:53.371106,49
2022-07-08 17:01:53.372774,49
2022-07-08 17:01:53.374426,74
2022-07-08 17:01:53.375866,88
2022-07-08 17:01:53.377288,70
2022-07-08 17:01:53.379382,20
2022-07-08 17:01:53.381178,-11
2022-07-08 17:01:53.382761,20
2022-07-08 17:01:53.384402,47
2022-07-08 17:01:53.386415,54
2022-07-08 17:01:53.388641,43
2022-07-08 17:01:53.390511,-4
2022-07-08 17:01:53.392107,-31
2022-07-08 17:01:53.393533,-45
2022-07-08 17:01:53.394909,-56
2022-07-08 17:01:53.396280,-61
2022-07-08 17:01:53.397665,-108
2022-07-08 17:01:53.399131,-169
2022-07-08 17:01:53.400796,-215
2022-07-08 17:01:53.403316,-251
2022-07-08 17:01:53.404893,-224
2022-07-08 17:01:53.407039,-190
2022-07-08 17:01:53.409486,-197
2022-07-08 17:01:53.411012,-197
2022-07-08 17:01:53.412692,-203
2022-07-08 17:01:53.414111,-219
2022-07-08 17:01:53.415482,-219
2022-07-08 17:01:53.635143,-233
2022-07-08 17:01:53.637574,-256
2022-07-08 17:01:53.639491,-267
2022-07-08 17:01:53.641122,-260
2022-07-08 17:01:53.642855,-251
2022-07-08 17:01:53.644548,-237
2022-07-08 17:01:53.646208,-231
2022-07-08 17:01:53.647882,-256
2022-07-08 17:01:53.649635,-251
2022-07-08 17:01:53.651238,-208
2022-07-08 17:01:53.652754,-194
2022-07-08 17:01:53.654191,-174
2022-07-08 17:01:53.655647,-165
2022-07-08 17:01:53.657046,-210
2022-07-08 17:01:53.658445,-228
2022-07-08 17:01:53.659871,-208
2022-07-08 17:01:53.661436,-183
2022-07-08 17:01:53.662904,-158
2022-07-08 17:01:53.664281,-149
2022-07-08 17:01:53.665661,-142
2022-07-08 17:01:53.667027,-145
2022-07-08 17:01:53.668383,-179
2022-07-08 17:01:53.669759,-251
2022-07-08 17:01:53.672175,-342
2022-07-08 17:01:53.674528,-158
2022-07-08 17:01:53.676068,591
2022-07-08 17:01:53.677590,1547
2022-07-08 17:01:53.678987,1829
2022-07-08 17:01:53.680372,956
2022-07-08 17:01:53.681789,-188
2022-07-08 17:01:53.815821,-412
2022-07-08 17:01:53.818316,-63
2022-07-08 17:01:53.820350,-2
2022-07-08 17:01:53.822046,-92
2022-07-08 17:01:53.823652,-29
2022-07-08 17:01:53.825442,18
2022-07-08 17:01:53.827165,-33
2022-07-08 17:01:53.828728,-36
2022-07-08 17:01:53.830443,20
2022-07-08 17:01:53.832008,40
2022-07-08 17:01:53.833405,63
2022-07-08 17:01:53.834828,95
2022-07-08 17:01:53.836281,88
2022-07-08 17:01:53.837667,83
2022-07-08 17:01:53.839027,117
2022-07-08 17:01:53.840412,160
2022-07-08 17:01:53.841944,194
2022-07-08 17:01:53.843406,224
2022-07-08 17:01:53.844795,244
2022-07-08 17:01:53.846179,269
2022-07-08 17:01:53.847561,330
2022-07-08 17:01:53.848938,383
2022-07-08 17:01:53.850320,403
2022-07-08 17:01:53.852910,417
2022-07-08 17:01:53.855301,428
2022-07-08 17:01:53.857475,466
2022-07-08 17:01:53.860783,487
2022-07-08 17:01:53.862881,432
2022-07-08 17:01:53.864552,387
2022-07-08 17:01:53.866202,371
2022-07-08 17:01:54.040874,299
2022-07-08 17:01:54.043269,179
2022-07-08 17:01:54.045300,67
2022-07-08 17:01:54.047002,-36
2022-07-08 17:01:54.048680,-135
2022-07-08 17:01:54.050379,-226
2022-07-08 17:01:54.052017,-292
2022-07-08 17:01:54.053469,-305
2022-07-08 17:01:54.055115,-285
2022-07-08 17:01:54.056480,-276
2022-07-08 17:01:54.057932,-276
2022-07-08 17:01:54.059392,-283
2022-07-08 17:01:54.060855,-296
2022-07-08 17:01:54.062331,-262
2022-07-08 17:01:54.063897,-210
2022-07-08 17:01:54.065384,-194
2022-07-08 17:01:54.066904,-179
2022-07-08 17:01:54.068305,-154
2022-07-08 17:01:54.069682,-133
2022-07-08 17:01:54.071050,-97
2022-07-08 17:01:54.072430,-63
2022-07-08 17:01:54.073822,-52
2022-07-08 17:01:54.075171,-40
2022-07-08 17:01:54.078440,-33
2022-07-08 17:01:54.080967,-36
2022-07-08 17:01:54.083308,-54
2022-07-08 17:01:54.085392,-61
2022-07-08 17:01:54.087007,-47
2022-07-08 17:01:54.088796,-45
2022-07-08 17:01:54.091323,-40
2022-07-08 17:01:54.265500,-13
2022-07-08 17:01:54.267806,13
2022-07-08 17:01:54.269505,31
2022-07-08 17:01:54.271252,24
2022-07-08 17:01:54.272949,4
2022-07-08 17:01:54.274646,-24
2022-07-08 17:01:54.276258,-31
2022-07-08 17:01:54.277715,6
2022-07-08 17:01:54.279284,29
2022-07-08 17:01:54.280797,22
2022-07-08 17:01:54.282197,6
2022-07-08 17:01:54.283604,-20
2022-07-08 17:01:54.284986,-15
2022-07-08 17:01:54.286374,18
2022-07-08 17:01:54.287757,33
2022-07-08 17:01:54.289190,38
2022-07-08 17:01:54.290693,33
2022-07-08 17:01:54.292105,33
2022-07-08 17:01:54.293565,52
2022-07-08 17:01:54.295035,74
2022-07-08 17:01:54.296502,92
2022-07-08 17:01:54.297975,95
2022-07-08 17:01:54.299446,83
2022-07-08 17:01:54.302268,86
2022-07-08 17:01:54.303914,104
2022-07-08 17:01:54.305631,129
2022-07-08 17:01:54.307512,126
2022-07-08 17:01:54.309826,74
2022-07-08 17:01:54.311367,15
2022-07-08 17:01:54.313054,-9
2022-07-08 17:01:54.491601,6
2022-07-08 17:01:54.494060,24
2022-07-08 17:01:54.496017,-11
2022-07-08 17:01:54.497719,-95
2022-07-08 17:01:54.499399,-151
2022-07-08 17:01:54.501087,-131
2022-07-08 17:01:54.502795,-88
2022-07-08 17:01:54.504392,-72
2022-07-08 17:01:54.506079,-61
2022-07-08 17:01:54.507615,-88
2022-07-08 17:01:54.509028,-174
2022-07-08 17:01:54.510440,-206
2022-07-08 17:01:54.511832,-183
2022-07-08 17:01:54.513219,-197
2022-07-08 17:01:54.514593,-222
2022-07-08 17:01:54.515971,-231
2022-07-08 17:01:54.517545,-233
2022-07-08 17:01:54.518946,-222
2022-07-08 17:01:54.520332,-201
2022-07-08 17:01:54.521711,-251
2022-07-08 17:01:54.523098,-362
2022-07-08 17:01:54.524488,-156
2022-07-08 17:01:54.525868,655
2022-07-08 17:01:54.529212,1613
2022-07-08 17:01:54.531589,1781
2022-07-08 17:01:54.533118,788
2022-07-08 17:01:54.534603,-337
2022-07-08 17:01:54.536040,-478
2022-07-08 17:01:54.537501,-145
2022-07-08 17:01:54.538867,-142
2022-07-08 17:01:54.806378,-222
2022-07-08 17:01:54.808944,-131
2022-07-08 17:01:54.810837,-101
2022-07-08 17:01:54.812447,-176
2022-07-08 17:01:54.814040,-179
2022-07-08 17:01:54.815642,-117
2022-07-08 17:01:54.817232,-79
2022-07-08 17:01:54.818769,-38
2022-07-08 17:01:54.820528,-11
2022-07-08 17:01:54.822231,-27
2022-07-08 17:01:54.823712,-31
2022-07-08 17:01:54.825188,15
2022-07-08 17:01:54.826642,86
2022-07-08 17:01:54.828086,129
2022-07-08 17:01:54.829466,169
2022-07-08 17:01:54.830932,206
2022-07-08 17:01:54.832608,228
2022-07-08 17:01:54.834196,296
2022-07-08 17:01:54.835638,376
2022-07-08 17:01:54.837084,430
2022-07-08 17:01:54.838539,491
2022-07-08 17:01:54.839992,514
2022-07-08 17:01:54.841664,530
2022-07-08 17:01:54.844505,573
2022-07-08 17:01:54.846413,587
2022-07-08 17:01:54.847914,584
2022-07-08 17:01:54.849369,534
2022-07-08 17:01:54.850848,407
2022-07-08 17:01:54.852226,276
2022-07-08 17:01:54.853596,165
2022-07-08 17:01:55.030865,70
2022-07-08 17:01:55.033358,-38
2022-07-08 17:01:55.035431,-151
2022-07-08 17:01:55.037137,-208
2022-07-08 17:01:55.038864,-226
2022-07-08 17:01:55.040579,-206
2022-07-08 17:01:55.042280,-167
2022-07-08 17:01:55.043831,-158
2022-07-08 17:01:55.045485,-176
2022-07-08 17:01:55.046888,-231
2022-07-08 17:01:55.048309,-233
2022-07-08 17:01:55.049689,-167
2022-07-08 17:01:55.051072,-145
2022-07-08 17:01:55.052446,-133
2022-07-08 17:01:55.053828,-140
2022-07-08 17:01:55.055290,-185
2022-07-08 17:01:55.056957,-158
2022-07-08 17:01:55.058453,-113
2022-07-08 17:01:55.059826,-88
2022-07-08 17:01:55.061474,-70
2022-07-08 17:01:55.062911,-101
2022-07-08 17:01:55.064293,-129
2022-07-08 17:01:55.065698,-108
2022-07-08 17:01:55.068275,-77
2022-07-08 17:01:55.070030,-45
2022-07-08 17:01:55.071767,-38
2022-07-08 17:01:55.073508,-38
2022-07-08 17:01:55.075948,-43
2022-07-08 17:01:55.077711,-38
2022-07-08 17:01:55.079119,2
2022-07-08 17:01:55.211273,22
2022-07-08 17:01:55.213785,40
2022-07-08 17:01:55.215830,56
2022-07-08 17:01:55.217519,9
2022-07-08 17:01:55.219194,-6
2022-07-08 17:01:55.220892,27
2022-07-08 17:01:55.222523,43
2022-07-08 17:01:55.224055,61
2022-07-08 17:01:55.225861,54
2022-07-08 17:01:55.227530,56
2022-07-08 17:01:55.229000,79
2022-07-08 17:01:55.230488,90
2022-07-08 17:01:55.232046,117
2022-07-08 17:01:55.233509,97
2022-07-08 17:01:55.234963,45
2022-07-08 17:01:55.236414,40
2022-07-08 17:01:55.237952,49
2022-07-08 17:01:55.239421,79
2022-07-08 17:01:55.240838,95
2022-07-08 17:01:55.242214,63
2022-07-08 17:01:55.243581,36
2022-07-08 17:01:55.244956,20
2022-07-08 17:01:55.247495,40
2022-07-08 17:01:55.249220,72
2022-07-08 17:01:55.251011,67
2022-07-08 17:01:55.252439,72
2022-07-08 17:01:55.253826,63
2022-07-08 17:01:55.255240,58
2022-07-08 17:01:55.256786,86
2022-07-08 17:01:55.259019,95
2022-07-08 17:01:55.480840,106
2022-07-08 17:01:55.483314,81
2022-07-08 17:01:55.485292,38
2022-07-08 17:01:55.486970,49
2022-07-08 17:01:55.488653,43
2022-07-08 17:01:55.490331,9
2022-07-08 17:01:55.492024,-24
2022-07-08 17:01:55.493571,-81
2022-07-08 17:01:55.495272,-95
2022-07-08 17:01:55.496836,-88
2022-07-08 17:01:55.498285,-58
2022-07-08 17:01:55.499670,-4
2022-07-08 17:01:55.501065,-24
2022-07-08 17:01:55.502454,-92
2022-07-08 17:01:55.503830,-176
2022-07-08 17:01:55.505215,-269
2022-07-08 17:01:55.506756,-296
2022-07-08 17:01:55.508184,-290
2022-07-08 17:01:55.509693,-278
2022-07-08 17:01:55.511087,-276
2022-07-08 17:01:55.512542,-281
2022-07-08 17:01:55.513932,-251
2022-07-08 17:01:55.515317,-240
2022-07-08 17:01:55.518246,-228
2022-07-08 17:01:55.519880,-215
2022-07-08 17:01:55.521398,-312
2022-07-08 17:01:55.522846,-407
2022-07-08 17:01:55.524586,-142
2022-07-08 17:01:55.526789,666
2022-07-08 17:01:55.529036,1595
2022-07-08 17:01:55.705009,1749
2022-07-08 17:01:55.707535,820
2022-07-08 17:01:55.709440,-256
2022-07-08 17:01:55.711023,-426
2022-07-08 17:01:55.712596,-79
2022-07-08 17:01:55.714162,-58
2022-07-08 17:01:55.715738,-158
2022-07-08 17:01:55.717287,-101
2022-07-08 17:01:55.718883,-108
2022-07-08 17:01:55.720426,-122
2022-07-08 17:01:55.721858,-67
2022-07-08 17:01:55.723300,-45
2022-07-08 17:01:55.724684,-54
2022-07-08 17:01:55.726070,-63
2022-07-08 17:01:55.727607,-24
2022-07-08 17:01:55.729011,11
2022-07-08 17:01:55.730512,24
2022-07-08 17:01:55.731985,70
2022-07-08 17:01:55.733459,65
2022-07-08 17:01:55.734979,54
2022-07-08 17:01:55.736460,124
2022-07-08 17:01:55.737887,169
2022-07-08 17:01:55.739289,208
2022-07-08 17:01:55.741882,265
2022-07-08 17:01:55.744423,303
2022-07-08 17:01:55.745915,364
2022-07-08 17:01:55.747279,417
2022-07-08 17:01:55.748633,457
2022-07-08 17:01:55.749981,496
2022-07-08 17:01:55.751331,512
2022-07-08 17:01:55.931268,528
2022-07-08 17:01:55.933679,521
2022-07-08 17:01:55.935562,491
2022-07-08 17:01:55.937124,417
2022-07-08 17:01:55.938683,274
2022-07-08 17:01:55.940246,133
2022-07-08 17:01:55.941870,0
2022-07-08 17:01:55.943264,-99
2022-07-08 17:01:55.944838,-138
2022-07-08 17:01:55.946369,-217
2022-07-08 17:01:55.947768,-285
2022-07-08 17:01:55.949159,-303
2022-07-08 17:01:55.950538,-335
2022-07-08 17:01:55.951924,-310
2022-07-08 17:01:55.953370,-271
2022-07-08 17:01:55.954757,-265
2022-07-08 17:01:55.956664,-237
2022-07-08 17:01:55.958283,-219
2022-07-08 17:01:55.959801,-203
2022-07-08 17:01:55.961351,-222
2022-07-08 17:01:55.962741,-274
2022-07-08 17:01:55.964131,-265
2022-07-08 17:01:55.965566,-237
2022-07-08 17:01:55.968642,-231
2022-07-08 17:01:55.970390,-206
2022-07-08 17:01:55.971997,-174
2022-07-08 17:01:55.973676,-133
2022-07-08 17:01:55.975720,-120
2022-07-08 17:01:55.978575,-113
2022-07-08 17:01:55.980195,-90
2022-07-08 17:01:56.155867,-88
2022-07-08 17:01:56.158323,-58
2022-07-08 17:01:56.160309,-29
2022-07-08 17:01:56.161999,-36
2022-07-08 17:01:56.163637,-40
2022-07-08 17:01:56.165330,-72
2022-07-08 17:01:56.167039,-81
2022-07-08 17:01:56.168713,-40
2022-07-08 17:01:56.170428,-27
2022-07-08 17:01:56.171921,-11
2022-07-08 17:01:56.173323,-2
2022-07-08 17:01:56.174711,-20
2022-07-08 17:01:56.176310,-36
2022-07-08 17:01:56.177794,-27
2022-07-08 17:01:56.179580,18
2022-07-08 17:01:56.181090,24
2022-07-08 17:01:56.182540,-18
2022-07-08 17:01:56.183996,-40
2022-07-08 17:01:56.185358,-33
2022-07-08 17:01:56.186712,4
2022-07-08 17:01:56.188055,31
2022-07-08 17:01:56.189484,20
2022-07-08 17:01:56.194324,24
2022-07-08 17:01:56.196703,31
2022-07-08 17:01:56.198331,43
2022-07-08 17:01:56.199806,79
2022-07-08 17:01:56.201294,97
2022-07-08 17:01:56.202720,101
2022-07-08 17:01:56.204087,99
2022-07-08 17:01:56.205656,117
2022-07-08 17:01:56.426267,151
2022-07-08 17:01:56.428629,156
2022-07-08 17:01:56.430612,154
2022-07-08 17:01:56.432313,140
2022-07-08 17:01:56.434045,81
2022-07-08 17:01:56.435637,56
2022-07-08 17:01:56.437110,86
2022-07-08 17:01:56.438598,104
2022-07-08 17:01:56.440215,97
2022-07-08 17:01:56.441701,97
2022-07-08 17:01:56.443068,133
2022-07-08 17:01:56.444449,160
2022-07-08 17:01:56.445836,160
2022-07-08 17:01:56.447205,135
2022-07-08 17:01:56.448573,74
2022-07-08 17:01:56.449941,15
2022-07-08 17:01:56.451516,-36
2022-07-08 17:01:56.453118,-58
2022-07-08 17:01:56.454574,-22
2022-07-08 17:01:56.455945,4
2022-07-08 17:01:56.457383,-4
2022-07-08 17:01:56.458844,-18
2022-07-08 17:01:56.460315,-31
2022-07-08 17:01:56.463436,-9
2022-07-08 17:01:56.465162,-9
2022-07-08 17:01:56.466703,-158
2022-07-08 17:01:56.468104,-351
2022-07-08 17:01:56.469518,-138
2022-07-08 17:01:56.470896,736
2022-07-08 17:01:56.472445,1659
2022-07-08 17:01:56.606121,1627
2022-07-08 17:01:56.608598,480
2022-07-08 17:01:56.610635,-577
2022-07-08 17:01:56.612347,-557
2022-07-08 17:01:56.614068,-192
2022-07-08 17:01:56.615769,-222
2022-07-08 17:01:56.617459,-249
2022-07-08 17:01:56.619131,-135
2022-07-08 17:01:56.621023,-135
2022-07-08 17:01:56.622702,-206
2022-07-08 17:01:56.624174,-215
2022-07-08 17:01:56.625609,-167
2022-07-08 17:01:56.627042,-113
2022-07-08 17:01:56.628494,-79
2022-07-08 17:01:56.629941,-47
2022-07-08 17:01:56.631462,-43
2022-07-08 17:01:56.632995,-47
2022-07-08 17:01:56.634455,4
2022-07-08 17:01:56.635853,70
2022-07-08 17:01:56.637224,124
2022-07-08 17:01:56.638610,156
2022-07-08 17:01:56.639987,158
2022-07-08 17:01:56.642580,185
2022-07-08 17:01:56.644297,262
2022-07-08 17:01:56.646077,353
2022-07-08 17:01:56.647575,419
2022-07-08 17:01:56.649032,446
2022-07-08 17:01:56.650519,466
2022-07-08 17:01:56.651991,498
2022-07-08 17:01:56.653382,537
2022-07-08 17:01:56.830901,568
2022-07-08 17:01:56.833238,553
2022-07-08 17:01:56.835283,480
2022-07-08 17:01:56.836976,353
2022-07-08 17:01:56.838688,215
2022-07-08 17:01:56.840388,115
2022-07-08 17:01:56.842083,29
2022-07-08 17:01:56.843531,-40
2022-07-08 17:01:56.845120,-111
2022-07-08 17:01:56.846492,-206
2022-07-08 17:01:56.847880,-224
2022-07-08 17:01:56.849260,-188
2022-07-08 17:01:56.850633,-169
2022-07-08 17:01:56.851992,-154
2022-07-08 17:01:56.853356,-176
2022-07-08 17:01:56.854728,-210
2022-07-08 17:01:56.856280,-197
2022-07-08 17:01:56.857881,-185
2022-07-08 17:01:56.859314,-190
2022-07-08 17:01:56.860708,-179
2022-07-08 17:01:56.862087,-160
2022-07-08 17:01:56.863600,-160
2022-07-08 17:01:56.864997,-151
2022-07-08 17:01:56.867514,-106
2022-07-08 17:01:56.870484,-79
2022-07-08 17:01:56.872869,-72
2022-07-08 17:01:56.874506,-61
2022-07-08 17:01:56.875926,-72
2022-07-08 17:01:56.877305,-65
2022-07-08 17:01:56.879004,-36
2022-07-08 17:01:57.055906,-43
2022-07-08 17:01:57.058345,-97
2022-07-08 17:01:57.060371,-158
2022-07-08 17:01:57.062107,-163
2022-07-08 17:01:57.063785,-129
2022-07-08 17:01:57.065457,-111
2022-07-08 17:01:57.067069,-81
2022-07-08 17:01:57.068734,-79
2022-07-08 17:01:57.070482,-122
2022-07-08 17:01:57.072116,-133
2022-07-08 17:01:57.073565,-106
2022-07-08 17:01:57.075069,-74
2022-07-08 17:01:57.076469,-52
2022-07-08 17:01:57.077857,-61
2022-07-08 17:01:57.079252,-95
2022-07-08 17:01:57.080644,-108
2022-07-08 17:01:57.082206,-81
2022-07-08 17:01:57.083740,-45
2022-07-08 17:01:57.085136,-33
2022-07-08 17:01:57.086538,-29
2022-07-08 17:01:57.087933,-52
2022-07-08 17:01:57.089327,-63
2022-07-08 17:01:57.091940,-29
2022-07-08 17:01:57.094632,-6
2022-07-08 17:01:57.096321,11
2022-07-08 17:01:57.097798,20
2022-07-08 17:01:57.099238,13
2022-07-08 17:01:57.100675,24
2022-07-08 17:01:57.102155,45
2022-07-08 17:01:57.103601,72
2022-07-08 17:01:57.415840,97
2022-07-08 17:01:57.418279,90
2022-07-08 17:01:57.420306,86
2022-07-08 17:01:57.422007,81
2022-07-08 17:01:57.423618,79
2022-07-08 17:01:57.425234,108
2022-07-08 17:01:57.426815,126
2022-07-08 17:01:57.428363,117
2022-07-08 17:01:57.430031,104
2022-07-08 17:01:57.431629,97
2022-07-08 17:01:57.433142,115
2022-07-08 17:01:57.434617,131
2022-07-08 17:01:57.436120,122
2022-07-08 17:01:57.437519,79
2022-07-08 17:01:57.438889,43
2022-07-08 17:01:57.440262,54
2022-07-08 17:01:57.441808,67
2022-07-08 17:01:57.443238,77
2022-07-08 17:01:57.444715,95
2022-07-08 17:01:57.446219,90
2022-07-08 17:01:57.447618,81
2022-07-08 17:01:57.448982,-4
2022-07-08 17:01:57.450373,-203
2022-07-08 17:01:57.453378,-115
2022-07-08 17:01:57.455051,584
2022-07-08 17:01:57.456744,1513
2022-07-08 17:01:57.458960,1903
2022-07-08 17:01:57.460679,1248
2022-07-08 17:01:57.462105,72
2022-07-08 17:01:57.463568,-378
2022-07-08 17:01:57.595622,-54
2022-07-08 17:01:57.597910,58
2022-07-08 17:01:57.599691,-97
2022-07-08 17:01:57.601390,-63
2022-07-08 17:01:57.602994,-9
2022-07-08 17:01:57.604713,-72
2022-07-08 17:01:57.606471,-108
2022-07-08 17:01:57.608068,-147
2022-07-08 17:01:57.609881,-185
2022-07-08 17:01:57.611424,-163
2022-07-08 17:01:57.612866,-138
2022-07-08 17:01:57.614339,-113
2022-07-08 17:01:57.615787,-88
2022-07-08 17:01:57.617248,-65
2022-07-08 17:01:57.618763,-24
2022-07-08 17:01:57.620312,2
2022-07-08 17:01:57.621876,40
2022-07-08 17:01:57.623366,81
2022-07-08 17:01:57.624759,74
2022-07-08 17:01:57.626146,81
2022-07-08 17:01:57.627510,142
2022-07-08 17:01:57.628877,213
2022-07-08 17:01:57.630251,278
2022-07-08 17:01:57.632549,319
2022-07-08 17:01:57.634285,337
2022-07-08 17:01:57.635834,355
2022-07-08 17:01:57.637310,376
2022-07-08 17:01:57.638778,376
2022-07-08 17:01:57.640556,330
2022-07-08 17:01:57.643014,235
2022-07-08 17:01:57.774924,81
2022-07-08 17:01:57.777542,-77
2022-07-08 17:01:57.779906,-167
2022-07-08 17:01:57.781663,-244
2022-07-08 17:01:57.783341,-303
2022-07-08 17:01:57.784956,-317
2022-07-08 17:01:57.786518,-324
2022-07-08 17:01:57.787984,-305
2022-07-08 17:01:57.789667,-276
2022-07-08 17:01:57.791879,-260
2022-07-08 17:01:57.793401,-242
2022-07-08 17:01:57.794855,-256
2022-07-08 17:01:57.796529,-278
2022-07-08 17:01:57.798007,-253
2022-07-08 17:01:57.799403,-219
2022-07-08 17:01:57.800981,-199
2022-07-08 17:01:57.802451,-183
2022-07-08 17:01:57.803931,-158
2022-07-08 17:01:57.805399,-129
2022-07-08 17:01:57.806864,-106
2022-07-08 17:01:57.808390,-72
2022-07-08 17:01:57.811036,-56
2022-07-08 17:01:57.812927,-58
2022-07-08 17:01:57.814499,-70
2022-07-08 17:01:57.815988,-95
2022-07-08 17:01:57.817464,-99
2022-07-08 17:01:57.818928,-113
2022-07-08 17:01:57.820385,-131
2022-07-08 17:01:57.821775,-108
2022-07-08 17:01:57.823388,-90
2022-07-08 17:01:57.955853,-86
2022-07-08 17:01:57.958271,-52
2022-07-08 17:01:57.960251,-36
2022-07-08 17:01:57.961990,-31
2022-07-08 17:01:57.963677,-43
2022-07-08 17:01:57.965361,-79
2022-07-08 17:01:57.967079,-83
2022-07-08 17:01:57.968745,-52
2022-07-08 17:01:57.970422,-24
2022-07-08 17:01:57.972032,-20
2022-07-08 17:01:57.973509,-45
2022-07-08 17:01:57.975067,-83
2022-07-08 17:01:57.976642,-145
2022-07-08 17:01:57.978574,-176
2022-07-08 17:01:57.980262,-149
2022-07-08 17:01:57.981741,-138
2022-07-08 17:01:57.983123,-135
2022-07-08 17:01:57.984484,-124
2022-07-08 17:01:57.985847,-101
2022-07-08 17:01:57.987210,-61
2022-07-08 17:01:57.988606,-45
2022-07-08 17:01:57.990207,-47
2022-07-08 17:01:57.993704,-45
2022-07-08 17:01:57.996144,-38
2022-07-08 17:01:57.997706,-6
2022-07-08 17:01:57.999182,22
2022-07-08 17:01:58.000722,29
2022-07-08 17:01:58.002295,11
2022-07-08 17:01:58.003883,-38
2022-07-08 17:01:58.005475,-38
2022-07-08 17:01:58.180579,-2
2022-07-08 17:01:58.182745,13
2022-07-08 17:01:58.184377,31
2022-07-08 17:01:58.186008,22
2022-07-08 17:01:58.187692,-18
2022-07-08 17:01:58.189383,-36
2022-07-08 17:01:58.191345,-15
2022-07-08 17:01:58.193633,22
2022-07-08 17:01:58.195362,29
2022-07-08 17:01:58.196823,6
2022-07-08 17:01:58.198250,-27
2022-07-08 17:01:58.199624,-36
2022-07-08 17:01:58.201002,22
2022-07-08 17:01:58.202375,74
2022-07-08 17:01:58.203735,77
2022-07-08 17:01:58.205267,77
2022-07-08 17:01:58.206650,61
2022-07-08 17:01:58.208163,56
2022-07-08 17:01:58.209615,72
2022-07-08 17:01:58.211378,67
2022-07-08 17:01:58.213224,49
2022-07-08 17:01:58.214842,15
2022-07-08 17:01:58.217866,-9
2022-07-08 17:01:58.219809,4
2022-07-08 17:01:58.221377,18
2022-07-08 17:01:58.222838,31
2022-07-08 17:01:58.224808,6
2022-07-08 17:01:58.227305,-135
2022-07-08 17:01:58.228887,-181
2022-07-08 17:01:58.230440,285
2022-07-08 17:01:58.495977,1201
2022-07-08 17:01:58.498399,1876
2022-07-08 17:01:58.500279,1577
2022-07-08 17:01:58.501860,358
2022-07-08 17:01:58.503428,-555
2022-07-08 17:01:58.504992,-421
2022-07-08 17:01:58.506626,-129
2022-07-08 17:01:58.508158,-242
2022-07-08 17:01:58.509827,-294
2022-07-08 17:01:58.511418,-247
2022-07-08 17:01:58.512906,-292
2022-07-08 17:01:58.514324,-274
2022-07-08 17:01:58.515731,-197
2022-07-08 17:01:58.517116,-165
2022-07-08 17:01:58.518501,-147
2022-07-08 17:01:58.519960,-140
2022-07-08 17:01:58.521522,-129
2022-07-08 17:01:58.522938,-122
2022-07-08 17:01:58.524329,-142
2022-07-08 17:01:58.525711,-129
2022-07-08 17:01:58.527211,-83
2022-07-08 17:01:58.528608,-58
2022-07-08 17:01:58.529991,-24
2022-07-08 17:01:58.532704,38
2022-07-08 17:01:58.534407,115
2022-07-08 17:01:58.536003,176
2022-07-08 17:01:58.537412,235
2022-07-08 17:01:58.538824,278
2022-07-08 17:01:58.540253,315
2022-07-08 17:01:58.541765,385
2022-07-08 17:01:58.765291,441
2022-07-08 17:01:58.767659,446
2022-07-08 17:01:58.769659,410
2022-07-08 17:01:58.771329,335
2022-07-08 17:01:58.773016,271
2022-07-08 17:01:58.774637,194
2022-07-08 17:01:58.776331,81
2022-07-08 17:01:58.778359,-18
2022-07-08 17:01:58.780229,-145
2022-07-08 17:01:58.781806,-276
2022-07-08 17:01:58.783267,-319
2022-07-08 17:01:58.784713,-305
2022-07-08 17:01:58.786118,-290
2022-07-08 17:01:58.787578,-281
2022-07-08 17:01:58.789051,-283
2022-07-08 17:01:58.790506,-290
2022-07-08 17:01:58.792454,-271
2022-07-08 17:01:58.794246,-219
2022-07-08 17:01:58.796168,-179
2022-07-08 17:01:58.797677,-158
2022-07-08 17:01:58.799084,-149
2022-07-08 17:01:58.801818,-160
2022-07-08 17:01:58.803399,-142
2022-07-08 17:01:58.805258,-90
2022-07-08 17:01:58.806702,-67
2022-07-08 17:01:58.808200,-47
2022-07-08 17:01:58.810264,-43
2022-07-08 17:01:58.812479,-56
2022-07-08 17:01:58.813912,-31
2022-07-08 17:01:58.815309,0
2022-07-08 17:01:58.900543,24
2022-07-08 17:01:58.902480,43
2022-07-08 17:01:58.904102,33
2022-07-08 17:01:58.905666,13
2022-07-08 17:01:58.907199,-22
2022-07-08 17:01:58.908754,-27
2022-07-08 17:01:58.910390,9
2022-07-08 17:01:58.911934,6
2022-07-08 17:01:58.913624,-29
2022-07-08 17:01:58.915405,-49
2022-07-08 17:01:58.917044,-31
2022-07-08 17:01:58.918563,0
2022-07-08 17:01:58.919951,13
2022-07-08 17:01:58.921333,9
2022-07-08 17:01:58.922711,-27
2022-07-08 17:01:58.924095,-54
2022-07-08 17:01:58.925814,-18
2022-07-08 17:01:58.927325,11
2022-07-08 17:01:58.928791,20
2022-07-08 17:01:58.930317,27
2022-07-08 17:01:58.931856,13
2022-07-08 17:01:58.933325,18
2022-07-08 17:01:58.934754,18
2022-07-08 17:01:58.937009,-31
2022-07-08 17:01:58.938602,-72
2022-07-08 17:01:58.940154,-77
2022-07-08 17:01:58.941725,-74
2022-07-08 17:01:58.943689,-72
2022-07-08 17:01:58.945747,-56
2022-07-08 17:01:58.947167,-20
2022-07-08 17:01:59.126850,0
2022-07-08 17:01:59.129150,4
2022-07-08 17:01:59.131043,9
2022-07-08 17:01:59.132615,9
2022-07-08 17:01:59.134190,29
2022-07-08 17:01:59.135766,31
2022-07-08 17:01:59.137441,-13
2022-07-08 17:01:59.139010,-63
2022-07-08 17:01:59.140722,-88
2022-07-08 17:01:59.142388,-74
2022-07-08 17:01:59.143840,-45
2022-07-08 17:01:59.145261,-29
2022-07-08 17:01:59.146704,-13
2022-07-08 17:01:59.148091,-40
2022-07-08 17:01:59.149482,-65
2022-07-08 17:01:59.150876,-45
2022-07-08 17:01:59.152459,-27
2022-07-08 17:01:59.153930,-2
2022-07-08 17:01:59.155331,15
2022-07-08 17:01:59.156725,11
2022-07-08 17:01:59.158193,24
2022-07-08 17:01:59.159691,33
2022-07-08 17:01:59.161101,49
2022-07-08 17:01:59.163621,74
2022-07-08 17:01:59.166100,79
2022-07-08 17:01:59.167889,58
2022-07-08 17:01:59.169328,18
2022-07-08 17:01:59.170683,-2
2022-07-08 17:01:59.172041,22
2022-07-08 17:01:59.173391,56
2022-07-08 17:01:59.350909,88
2022-07-08 17:01:59.353290,92
2022-07-08 17:01:59.355160,88
2022-07-08 17:01:59.356833,101
2022-07-08 17:01:59.359085,92
2022-07-08 17:01:59.361346,79
2022-07-08 17:01:59.363101,47
2022-07-08 17:01:59.364842,-31
2022-07-08 17:01:59.366379,-95
2022-07-08 17:01:59.367830,-129
2022-07-08 17:01:59.369198,-151
2022-07-08 17:01:59.370570,-172
2022-07-08 17:01:59.371968,-210
2022-07-08 17:01:59.373361,-226
2022-07-08 17:01:59.374824,-247
2022-07-08 17:01:59.376581,-364
2022-07-08 17:01:59.378183,-380
2022-07-08 17:01:59.380027,111
2022-07-08 17:01:59.381522,1035
2022-07-08 17:01:59.382976,1697
2022-07-08 17:01:59.384413,1398
2022-07-08 17:01:59.385881,283
