Time,ECG
2022-07-12 14:25:09.864225,12592
2022-07-12 14:25:09.867450,12606
2022-07-12 14:25:09.869007,12795
2022-07-12 14:25:09.870363,12979
2022-07-12 14:25:09.871696,12937
2022-07-12 14:25:09.873035,12937
2022-07-12 14:25:09.874618,13047
2022-07-12 14:25:09.876033,13161
2022-07-12 14:25:09.877490,13322
2022-07-12 14:25:09.879095,13478
2022-07-12 14:25:09.880611,13501
2022-07-12 14:25:09.882208,13466
2022-07-12 14:25:09.883625,13534
2022-07-12 14:25:09.885095,13637
2022-07-12 14:25:09.886487,13716
2022-07-12 14:25:09.887865,13793
2022-07-12 14:25:09.889281,13765
2022-07-12 14:25:09.890832,13695
2022-07-12 14:25:09.892289,13732
2022-07-12 14:25:09.893692,13795
2022-07-12 14:25:09.895100,13863
2022-07-12 14:25:09.896501,13940
2022-07-12 14:25:09.897928,13879
2022-07-12 14:25:09.901209,13774
2022-07-12 14:25:09.903659,13788
2022-07-12 14:25:09.905193,13826
2022-07-12 14:25:09.906667,13858
2022-07-12 14:25:09.908086,13889
2022-07-12 14:25:09.909474,13795
2022-07-12 14:25:09.910897,13702
2022-07-12 14:25:10.179200,13800
2022-07-12 14:25:10.180989,13844
2022-07-12 14:25:10.182376,13763
2022-07-12 14:25:10.183735,13758
2022-07-12 14:25:10.185089,13583
2022-07-12 14:25:10.186441,13313
2022-07-12 14:25:10.188020,13303
2022-07-12 14:25:10.189402,13345
2022-07-12 14:25:10.190839,13341
2022-07-12 14:25:10.192432,13345
2022-07-12 14:25:10.193973,13217
2022-07-12 14:25:10.195443,13068
2022-07-12 14:25:10.196844,13035
2022-07-12 14:25:10.198187,13028
2022-07-12 14:25:10.199562,13084
2022-07-12 14:25:10.200973,13047
2022-07-12 14:25:10.202299,12734
2022-07-12 14:25:10.204050,12529
2022-07-12 14:25:10.205584,12553
2022-07-12 14:25:10.207048,12513
2022-07-12 14:25:10.208441,12473
2022-07-12 14:25:10.209840,12441
2022-07-12 14:25:10.211530,12247
2022-07-12 14:25:10.212964,12096
2022-07-12 14:25:10.217026,12058
2022-07-12 14:25:10.220200,11960
2022-07-12 14:25:10.223344,11942
2022-07-12 14:25:10.226304,12112
2022-07-12 14:25:10.229008,12529
2022-07-12 14:25:10.231330,12947
2022-07-12 14:25:10.314078,12532
2022-07-12 14:25:10.315971,11660
2022-07-12 14:25:10.317397,11480
2022-07-12 14:25:10.318895,11461
2022-07-12 14:25:10.320284,11011
2022-07-12 14:25:10.321713,10776
2022-07-12 14:25:10.323262,10830
2022-07-12 14:25:10.324746,10797
2022-07-12 14:25:10.326181,10771
2022-07-12 14:25:10.328015,10652
2022-07-12 14:25:10.329513,10373
2022-07-12 14:25:10.330942,10258
2022-07-12 14:25:10.332470,10270
2022-07-12 14:25:10.333926,10223
2022-07-12 14:25:10.335371,10191
2022-07-12 14:25:10.336746,10076
2022-07-12 14:25:10.338162,9864
2022-07-12 14:25:10.339951,9780
2022-07-12 14:25:10.341386,9759
2022-07-12 14:25:10.342777,9710
2022-07-12 14:25:10.344170,9706
2022-07-12 14:25:10.345592,9589
2022-07-12 14:25:10.346944,9354
2022-07-12 14:25:10.348507,9251
2022-07-12 14:25:10.351678,9228
2022-07-12 14:25:10.353910,9200
2022-07-12 14:25:10.355519,9146
2022-07-12 14:25:10.356940,8934
2022-07-12 14:25:10.358420,8722
2022-07-12 14:25:10.359776,8664
2022-07-12 14:25:10.584169,8622
2022-07-12 14:25:10.585914,8556
2022-07-12 14:25:10.587303,8505
2022-07-12 14:25:10.588808,8393
2022-07-12 14:25:10.590176,8274
2022-07-12 14:25:10.591531,8211
2022-07-12 14:25:10.592871,8116
2022-07-12 14:25:10.594247,8025
2022-07-12 14:25:10.595719,7899
2022-07-12 14:25:10.597460,7680
2022-07-12 14:25:10.598887,7488
2022-07-12 14:25:10.600307,7379
2022-07-12 14:25:10.601742,7325
2022-07-12 14:25:10.603151,7309
2022-07-12 14:25:10.604647,7204
2022-07-12 14:25:10.606136,7008
2022-07-12 14:25:10.607574,6903
2022-07-12 14:25:10.609141,6868
2022-07-12 14:25:10.610712,6817
2022-07-12 14:25:10.612368,6770
2022-07-12 14:25:10.613856,6698
2022-07-12 14:25:10.615441,6593
2022-07-12 14:25:10.616865,6502
2022-07-12 14:25:10.618369,6446
2022-07-12 14:25:10.621480,6416
2022-07-12 14:25:10.624345,6365
2022-07-12 14:25:10.626227,6283
2022-07-12 14:25:10.628295,6197
2022-07-12 14:25:10.630668,6115
2022-07-12 14:25:10.632956,6062
2022-07-12 14:25:10.808559,6031
2022-07-12 14:25:10.810456,5980
2022-07-12 14:25:10.812079,5901
2022-07-12 14:25:10.814473,5817
2022-07-12 14:25:10.816240,5744
2022-07-12 14:25:10.817929,5688
2022-07-12 14:25:10.819815,5691
2022-07-12 14:25:10.822459,5702
2022-07-12 14:25:10.824303,5560
2022-07-12 14:25:10.825998,5336
2022-07-12 14:25:10.827702,5243
2022-07-12 14:25:10.829702,5231
2022-07-12 14:25:10.831457,5220
2022-07-12 14:25:10.833339,5159
2022-07-12 14:25:10.834941,5024
2022-07-12 14:25:10.836588,4942
2022-07-12 14:25:10.838180,4900
2022-07-12 14:25:10.839771,4847
2022-07-12 14:25:10.841227,4812
2022-07-12 14:25:10.842701,4733
2022-07-12 14:25:10.848407,4625
2022-07-12 14:25:10.850144,4607
2022-07-12 14:25:10.851695,4635
2022-07-12 14:25:10.853224,4630
2022-07-12 14:25:10.854702,4590
2022-07-12 14:25:10.856340,4509
2022-07-12 14:25:10.858515,4441
2022-07-12 14:25:10.860895,4413
2022-07-12 14:25:10.862569,4355
2022-07-12 14:25:10.864092,4290
2022-07-12 14:25:11.034172,4259
2022-07-12 14:25:11.035884,4203
2022-07-12 14:25:11.037373,4129
2022-07-12 14:25:11.038807,4066
2022-07-12 14:25:11.040232,4003
2022-07-12 14:25:11.041659,3977
2022-07-12 14:25:11.043083,3954
2022-07-12 14:25:11.044522,3863
2022-07-12 14:25:11.045971,3765
2022-07-12 14:25:11.047840,3686
2022-07-12 14:25:11.049378,3693
2022-07-12 14:25:11.050859,4187
2022-07-12 14:25:11.052293,5050
2022-07-12 14:25:11.053766,5033
2022-07-12 14:25:11.055228,3896
2022-07-12 14:25:11.056678,3254
2022-07-12 14:25:11.058118,3478
2022-07-12 14:25:11.059676,3434
2022-07-12 14:25:11.061122,3159
2022-07-12 14:25:11.062534,3145
2022-07-12 14:25:11.063928,3161
2022-07-12 14:25:11.065365,3079
2022-07-12 14:25:11.066770,3047
2022-07-12 14:25:11.068179,3054
2022-07-12 14:25:11.071300,3019
2022-07-12 14:25:11.073617,2965
2022-07-12 14:25:11.075257,2954
2022-07-12 14:25:11.076684,2944
2022-07-12 14:25:11.078142,2907
2022-07-12 14:25:11.079563,2886
2022-07-12 14:25:11.214354,2872
2022-07-12 14:25:11.216056,2832
2022-07-12 14:25:11.217559,2779
2022-07-12 14:25:11.219009,2730
2022-07-12 14:25:11.220440,2692
2022-07-12 14:25:11.221982,2650
2022-07-12 14:25:11.223480,2581
2022-07-12 14:25:11.225081,2534
2022-07-12 14:25:11.226575,2522
2022-07-12 14:25:11.228174,2490
2022-07-12 14:25:11.230378,2448
2022-07-12 14:25:11.232123,2410
2022-07-12 14:25:11.233555,2364
2022-07-12 14:25:11.234977,2298
2022-07-12 14:25:11.236411,2196
2022-07-12 14:25:11.238256,2119
2022-07-12 14:25:11.239855,2128
2022-07-12 14:25:11.241308,2119
2022-07-12 14:25:11.242732,2019
2022-07-12 14:25:11.244209,1960
2022-07-12 14:25:11.245922,1958
2022-07-12 14:25:11.247484,1890
2022-07-12 14:25:11.249198,1823
2022-07-12 14:25:11.251650,1809
2022-07-12 14:25:11.254607,1776
2022-07-12 14:25:11.256603,1748
2022-07-12 14:25:11.258146,1753
2022-07-12 14:25:11.260738,1743
2022-07-12 14:25:11.262706,1723
2022-07-12 14:25:11.264220,1709
2022-07-12 14:25:11.439188,1702
2022-07-12 14:25:11.440922,1704
2022-07-12 14:25:11.442377,1711
2022-07-12 14:25:11.443824,1713
2022-07-12 14:25:11.445242,1697
2022-07-12 14:25:11.446970,1648
2022-07-12 14:25:11.448514,1597
2022-07-12 14:25:11.450052,1592
2022-07-12 14:25:11.451499,1597
2022-07-12 14:25:11.453242,1576
2022-07-12 14:25:11.454775,1545
2022-07-12 14:25:11.457970,1499
2022-07-12 14:25:11.461838,1459
2022-07-12 14:25:11.464700,1459
2022-07-12 14:25:11.469659,1440
2022-07-12 14:25:11.474470,1394
2022-07-12 14:25:11.477961,1361
2022-07-12 14:25:11.480844,1328
2022-07-12 14:25:11.483485,1317
2022-07-12 14:25:11.486013,1335
2022-07-12 14:25:11.488005,1342
2022-07-12 14:25:11.490942,1342
2022-07-12 14:25:11.496110,1333
2022-07-12 14:25:11.499958,1326
2022-07-12 14:25:11.503209,1340
2022-07-12 14:25:11.528886,1354
2022-07-12 14:25:11.532185,1352
2022-07-12 14:25:11.535532,1338
2022-07-12 14:25:11.538309,1319
2022-07-12 14:25:11.540488,1305
2022-07-12 14:25:11.707826,1305
2022-07-12 14:25:11.709665,1314
2022-07-12 14:25:11.711364,1314
2022-07-12 14:25:11.712889,1294
2022-07-12 14:25:11.714268,1238
2022-07-12 14:25:11.715627,1179
2022-07-12 14:25:11.717037,1182
2022-07-12 14:25:11.718420,1224
2022-07-12 14:25:11.720051,1240
2022-07-12 14:25:11.721744,1245
2022-07-12 14:25:11.723149,1207
2022-07-12 14:25:11.724523,1142
2022-07-12 14:25:11.725877,1135
2022-07-12 14:25:11.727271,1163
2022-07-12 14:25:11.728764,1149
2022-07-12 14:25:11.730149,1084
2022-07-12 14:25:11.731547,1011
2022-07-12 14:25:11.733003,995
2022-07-12 14:25:11.734478,993
2022-07-12 14:25:11.736135,930
2022-07-12 14:25:11.737523,881
2022-07-12 14:25:11.738932,878
2022-07-12 14:25:11.740350,874
2022-07-12 14:25:11.741736,862
2022-07-12 14:25:11.744479,834
2022-07-12 14:25:11.746549,783
2022-07-12 14:25:11.748281,813
2022-07-12 14:25:11.749763,1177
2022-07-12 14:25:11.751344,2002
2022-07-12 14:25:11.752797,2478
2022-07-12 14:25:11.934101,1718
2022-07-12 14:25:11.936266,802
2022-07-12 14:25:11.938263,876
2022-07-12 14:25:11.939748,1002
2022-07-12 14:25:11.941163,673
2022-07-12 14:25:11.942729,587
2022-07-12 14:25:11.944605,715
2022-07-12 14:25:11.946439,701
2022-07-12 14:25:11.948235,676
2022-07-12 14:25:11.949742,678
2022-07-12 14:25:11.951182,634
2022-07-12 14:25:11.953370,631
2022-07-12 14:25:11.954946,673
2022-07-12 14:25:11.956363,692
2022-07-12 14:25:11.957746,692
2022-07-12 14:25:11.959337,687
2022-07-12 14:25:11.961592,673
2022-07-12 14:25:11.963154,641
2022-07-12 14:25:11.964603,606
2022-07-12 14:25:11.966019,627
2022-07-12 14:25:11.967427,655
2022-07-12 14:25:11.970680,603
2022-07-12 14:25:11.972770,568
2022-07-12 14:25:11.974614,620
2022-07-12 14:25:11.977636,638
2022-07-12 14:25:11.980414,596
2022-07-12 14:25:11.982070,589
2022-07-12 14:25:11.983675,587
2022-07-12 14:25:11.985857,568
2022-07-12 14:25:11.987418,578
2022-07-12 14:25:12.159142,599
2022-07-12 14:25:12.160949,610
2022-07-12 14:25:12.162410,610
2022-07-12 14:25:12.163837,580
2022-07-12 14:25:12.165383,543
2022-07-12 14:25:12.166797,531
2022-07-12 14:25:12.168195,517
2022-07-12 14:25:12.169617,482
2022-07-12 14:25:12.171024,431
2022-07-12 14:25:12.172777,375
2022-07-12 14:25:12.174211,347
2022-07-12 14:25:12.175604,363
2022-07-12 14:25:12.177021,380
2022-07-12 14:25:12.178425,377
2022-07-12 14:25:12.179823,359
2022-07-12 14:25:12.181212,314
2022-07-12 14:25:12.182614,300
2022-07-12 14:25:12.184107,338
2022-07-12 14:25:12.185601,352
2022-07-12 14:25:12.187038,331
2022-07-12 14:25:12.188433,289
2022-07-12 14:25:12.189854,263
2022-07-12 14:25:12.191256,282
2022-07-12 14:25:12.192641,291
2022-07-12 14:25:12.194815,247
2022-07-12 14:25:12.196997,212
2022-07-12 14:25:12.198948,216
2022-07-12 14:25:12.200430,226
2022-07-12 14:25:12.201805,230
2022-07-12 14:25:12.203172,254
2022-07-12 14:25:12.384094,289
2022-07-12 14:25:12.386742,300
2022-07-12 14:25:12.388465,293
2022-07-12 14:25:12.390000,289
2022-07-12 14:25:12.391443,300
2022-07-12 14:25:12.393041,331
2022-07-12 14:25:12.395019,349
2022-07-12 14:25:12.396532,345
2022-07-12 14:25:12.398238,314
2022-07-12 14:25:12.399745,286
2022-07-12 14:25:12.401804,303
2022-07-12 14:25:12.403411,335
2022-07-12 14:25:12.404884,347
2022-07-12 14:25:12.406385,345
2022-07-12 14:25:12.407744,314
2022-07-12 14:25:12.409829,298
2022-07-12 14:25:12.411525,338
2022-07-12 14:25:12.412904,377
2022-07-12 14:25:12.414261,382
2022-07-12 14:25:12.415686,349
2022-07-12 14:25:12.417864,328
2022-07-12 14:25:12.420023,310
2022-07-12 14:25:12.422419,275
2022-07-12 14:25:12.424014,284
2022-07-12 14:25:12.426433,335
2022-07-12 14:25:12.429631,377
2022-07-12 14:25:12.431249,419
2022-07-12 14:25:12.432780,433
2022-07-12 14:25:12.434990,405
2022-07-12 14:25:12.436515,394
2022-07-12 14:25:12.609107,401
2022-07-12 14:25:12.610774,396
2022-07-12 14:25:12.612269,377
2022-07-12 14:25:12.613710,366
2022-07-12 14:25:12.615145,377
2022-07-12 14:25:12.616589,387
2022-07-12 14:25:12.618020,382
2022-07-12 14:25:12.619466,349
2022-07-12 14:25:12.620932,314
2022-07-12 14:25:12.622777,331
2022-07-12 14:25:12.624273,354
2022-07-12 14:25:12.625698,321
2022-07-12 14:25:12.627130,258
2022-07-12 14:25:12.628531,261
2022-07-12 14:25:12.629990,559
2022-07-12 14:25:12.631521,1261
2022-07-12 14:25:12.632931,1674
2022-07-12 14:25:12.634496,1009
2022-07-12 14:25:12.635952,186
2022-07-12 14:25:12.637407,263
2022-07-12 14:25:12.638830,442
2022-07-12 14:25:12.640282,221
2022-07-12 14:25:12.641756,172
2022-07-12 14:25:12.643199,263
2022-07-12 14:25:12.645074,200
2022-07-12 14:25:12.647501,158
2022-07-12 14:25:12.649872,205
2022-07-12 14:25:12.651478,228
2022-07-12 14:25:12.652913,240
2022-07-12 14:25:12.654372,244
2022-07-12 14:25:12.877804,191
2022-07-12 14:25:12.879501,149
2022-07-12 14:25:12.880929,174
2022-07-12 14:25:12.882344,177
2022-07-12 14:25:12.884020,142
2022-07-12 14:25:12.885459,144
2022-07-12 14:25:12.886892,137
2022-07-12 14:25:12.888379,100
2022-07-12 14:25:12.889791,109
2022-07-12 14:25:12.891455,135
2022-07-12 14:25:12.892929,144
2022-07-12 14:25:12.894337,151
2022-07-12 14:25:12.895777,137
2022-07-12 14:25:12.897203,114
2022-07-12 14:25:12.898708,118
2022-07-12 14:25:12.900129,130
2022-07-12 14:25:12.901645,132
2022-07-12 14:25:12.903219,144
2022-07-12 14:25:12.904752,156
2022-07-12 14:25:12.906295,146
2022-07-12 14:25:12.907828,128
2022-07-12 14:25:12.909357,109
2022-07-12 14:25:12.910812,81
2022-07-12 14:25:12.912327,48
2022-07-12 14:25:12.914175,20
2022-07-12 14:25:12.916520,-11
2022-07-12 14:25:12.918531,-46
2022-07-12 14:25:12.920045,-60
2022-07-12 14:25:12.921465,-39
2022-07-12 14:25:12.922877,-23
2022-07-12 14:25:13.104178,-27
2022-07-12 14:25:13.105972,-11
2022-07-12 14:25:13.107508,6
2022-07-12 14:25:13.109074,11
2022-07-12 14:25:13.110590,25
2022-07-12 14:25:13.112101,20
2022-07-12 14:25:13.113735,-4
2022-07-12 14:25:13.115324,2
2022-07-12 14:25:13.116876,32
2022-07-12 14:25:13.118696,39
2022-07-12 14:25:13.120255,41
2022-07-12 14:25:13.121837,39
2022-07-12 14:25:13.123403,18
2022-07-12 14:25:13.125066,18
2022-07-12 14:25:13.126674,46
2022-07-12 14:25:13.128304,51
2022-07-12 14:25:13.129980,51
2022-07-12 14:25:13.131611,67
2022-07-12 14:25:13.133299,69
2022-07-12 14:25:13.134868,88
2022-07-12 14:25:13.136375,114
2022-07-12 14:25:13.137791,116
2022-07-12 14:25:13.139276,123
2022-07-12 14:25:13.141189,130
2022-07-12 14:25:13.143544,135
2022-07-12 14:25:13.145326,156
2022-07-12 14:25:13.146811,172
2022-07-12 14:25:13.148312,153
2022-07-12 14:25:13.149911,118
2022-07-12 14:25:13.151466,114
2022-07-12 14:25:13.329121,135
2022-07-12 14:25:13.330897,149
2022-07-12 14:25:13.332429,158
2022-07-12 14:25:13.333831,158
2022-07-12 14:25:13.335250,160
2022-07-12 14:25:13.336645,153
2022-07-12 14:25:13.338028,132
2022-07-12 14:25:13.339528,160
2022-07-12 14:25:13.341116,200
2022-07-12 14:25:13.342772,174
2022-07-12 14:25:13.344240,142
2022-07-12 14:25:13.345617,130
2022-07-12 14:25:13.346987,116
2022-07-12 14:25:13.348346,121
2022-07-12 14:25:13.349787,130
2022-07-12 14:25:13.351194,132
2022-07-12 14:25:13.352632,118
2022-07-12 14:25:13.354136,93
2022-07-12 14:25:13.355638,102
2022-07-12 14:25:13.357036,132
2022-07-12 14:25:13.358405,146
2022-07-12 14:25:13.359803,146
2022-07-12 14:25:13.361276,109
2022-07-12 14:25:13.362683,69
2022-07-12 14:25:13.364316,142
2022-07-12 14:25:13.367022,503
2022-07-12 14:25:13.368934,1219
2022-07-12 14:25:13.370447,1571
2022-07-12 14:25:13.371856,839
2022-07-12 14:25:13.373217,30
2022-07-12 14:25:13.509115,137
2022-07-12 14:25:13.510889,312
2022-07-12 14:25:13.512310,86
2022-07-12 14:25:13.513693,32
2022-07-12 14:25:13.515065,97
2022-07-12 14:25:13.516481,30
2022-07-12 14:25:13.517893,30
2022-07-12 14:25:13.519311,104
2022-07-12 14:25:13.520733,111
2022-07-12 14:25:13.522332,95
2022-07-12 14:25:13.523791,93
2022-07-12 14:25:13.525181,100
2022-07-12 14:25:13.526557,128
2022-07-12 14:25:13.527933,156
2022-07-12 14:25:13.529320,156
2022-07-12 14:25:13.530787,109
2022-07-12 14:25:13.532195,69
2022-07-12 14:25:13.533729,74
2022-07-12 14:25:13.535133,102
2022-07-12 14:25:13.536508,128
2022-07-12 14:25:13.537874,137
2022-07-12 14:25:13.539279,125
2022-07-12 14:25:13.540692,116
2022-07-12 14:25:13.542079,128
2022-07-12 14:25:13.543462,153
2022-07-12 14:25:13.545663,167
2022-07-12 14:25:13.547759,167
2022-07-12 14:25:13.549653,160
2022-07-12 14:25:13.551082,146
2022-07-12 14:25:13.552484,158
2022-07-12 14:25:13.867764,167
2022-07-12 14:25:13.870400,125
2022-07-12 14:25:13.871955,60
2022-07-12 14:25:13.873335,-16
2022-07-12 14:25:13.874692,-83
2022-07-12 14:25:13.876042,-86
2022-07-12 14:25:13.878439,-67
2022-07-12 14:25:13.880266,-69
2022-07-12 14:25:13.881910,-81
2022-07-12 14:25:13.883622,-116
2022-07-12 14:25:13.885346,-160
2022-07-12 14:25:13.887454,-193
2022-07-12 14:25:13.888935,-209
2022-07-12 14:25:13.890343,-186
2022-07-12 14:25:13.891811,-165
2022-07-12 14:25:13.893853,-172
2022-07-12 14:25:13.895580,-172
2022-07-12 14:25:13.897026,-135
2022-07-12 14:25:13.898414,-95
2022-07-12 14:25:13.899811,-76
2022-07-12 14:25:13.901644,-62
2022-07-12 14:25:13.904691,-62
2022-07-12 14:25:13.907126,-62
2022-07-12 14:25:13.909443,-25
2022-07-12 14:25:13.912641,4
2022-07-12 14:25:13.914154,23
2022-07-12 14:25:13.915683,37
2022-07-12 14:25:13.918450,25
2022-07-12 14:25:13.920312,30
2022-07-12 14:25:13.922496,62
2022-07-12 14:25:14.004586,86
2022-07-12 14:25:14.007355,104
2022-07-12 14:25:14.009167,114
2022-07-12 14:25:14.010739,97
2022-07-12 14:25:14.012232,67
2022-07-12 14:25:14.014084,72
2022-07-12 14:25:14.015851,109
2022-07-12 14:25:14.017334,125
2022-07-12 14:25:14.018823,114
2022-07-12 14:25:14.020191,93
2022-07-12 14:25:14.022051,90
2022-07-12 14:25:14.023717,123
2022-07-12 14:25:14.025160,144
2022-07-12 14:25:14.026528,146
2022-07-12 14:25:14.027869,128
2022-07-12 14:25:14.029495,72
2022-07-12 14:25:14.031378,62
2022-07-12 14:25:14.032900,111
2022-07-12 14:25:14.034555,144
2022-07-12 14:25:14.036157,174
2022-07-12 14:25:14.037974,177
2022-07-12 14:25:14.041290,123
2022-07-12 14:25:14.043768,102
2022-07-12 14:25:14.046271,137
2022-07-12 14:25:14.048103,163
2022-07-12 14:25:14.049578,149
2022-07-12 14:25:14.051090,118
2022-07-12 14:25:14.052740,107
2022-07-12 14:25:14.055218,116
2022-07-12 14:25:14.056781,144
2022-07-12 14:25:14.318496,165
2022-07-12 14:25:14.320212,170
2022-07-12 14:25:14.321699,163
2022-07-12 14:25:14.323730,146
2022-07-12 14:25:14.325199,135
2022-07-12 14:25:14.326664,81
2022-07-12 14:25:14.328086,13
2022-07-12 14:25:14.329587,144
2022-07-12 14:25:14.331095,722
2022-07-12 14:25:14.332812,1538
2022-07-12 14:25:14.334302,1499
2022-07-12 14:25:14.335796,422
2022-07-12 14:25:14.337252,-88
2022-07-12 14:25:14.338738,186
2022-07-12 14:25:14.340214,81
2022-07-12 14:25:14.341665,-174
2022-07-12 14:25:14.343118,-104
2022-07-12 14:25:14.344762,-93
2022-07-12 14:25:14.346265,-167
2022-07-12 14:25:14.347702,-125
2022-07-12 14:25:14.349215,-90
2022-07-12 14:25:14.350702,-109
2022-07-12 14:25:14.352175,-83
2022-07-12 14:25:14.354378,-30
2022-07-12 14:25:14.356596,-13
2022-07-12 14:25:14.358652,-4
2022-07-12 14:25:14.360145,11
2022-07-12 14:25:14.361596,6
2022-07-12 14:25:14.363000,0
2022-07-12 14:25:14.364400,11
2022-07-12 14:25:14.454109,34
2022-07-12 14:25:14.455896,44
2022-07-12 14:25:14.457570,34
2022-07-12 14:25:14.459039,44
2022-07-12 14:25:14.460477,62
2022-07-12 14:25:14.461898,74
2022-07-12 14:25:14.463318,93
2022-07-12 14:25:14.464770,97
2022-07-12 14:25:14.466235,74
2022-07-12 14:25:14.467829,53
2022-07-12 14:25:14.469270,62
2022-07-12 14:25:14.470692,86
2022-07-12 14:25:14.472100,86
2022-07-12 14:25:14.473525,51
2022-07-12 14:25:14.474974,4
2022-07-12 14:25:14.476433,-23
2022-07-12 14:25:14.477856,-32
2022-07-12 14:25:14.479539,-55
2022-07-12 14:25:14.481022,-90
2022-07-12 14:25:14.482442,-128
2022-07-12 14:25:14.484015,-158
2022-07-12 14:25:14.485497,-153
2022-07-12 14:25:14.486916,-135
2022-07-12 14:25:14.488441,-125
2022-07-12 14:25:14.491250,-118
2022-07-12 14:25:14.493569,-125
2022-07-12 14:25:14.495223,-121
2022-07-12 14:25:14.496777,-100
2022-07-12 14:25:14.498228,-88
2022-07-12 14:25:14.499687,-69
2022-07-12 14:25:14.724173,-55
2022-07-12 14:25:14.725897,-55
2022-07-12 14:25:14.727497,-41
2022-07-12 14:25:14.729046,-30
2022-07-12 14:25:14.730589,-16
2022-07-12 14:25:14.732143,4
2022-07-12 14:25:14.733819,-11
2022-07-12 14:25:14.735422,-44
2022-07-12 14:25:14.736929,-37
2022-07-12 14:25:14.738469,-30
2022-07-12 14:25:14.739835,-58
2022-07-12 14:25:14.741212,-67
2022-07-12 14:25:14.742649,-65
2022-07-12 14:25:14.744118,-83
2022-07-12 14:25:14.745590,-76
2022-07-12 14:25:14.747053,-46
2022-07-12 14:25:14.748508,-34
2022-07-12 14:25:14.750109,-16
2022-07-12 14:25:14.751677,-2
2022-07-12 14:25:14.753225,-2
2022-07-12 14:25:14.754767,18
2022-07-12 14:25:14.756366,30
2022-07-12 14:25:14.758036,4
2022-07-12 14:25:14.760418,-39
2022-07-12 14:25:14.762287,-58
2022-07-12 14:25:14.764296,-32
2022-07-12 14:25:14.765764,-6
2022-07-12 14:25:14.767142,-4
2022-07-12 14:25:14.768535,18
2022-07-12 14:25:14.769903,37
2022-07-12 14:25:14.947832,37
2022-07-12 14:25:14.949567,48
2022-07-12 14:25:14.950955,60
2022-07-12 14:25:14.952308,62
2022-07-12 14:25:14.953648,79
2022-07-12 14:25:14.955020,93
2022-07-12 14:25:14.956358,86
2022-07-12 14:25:14.957723,95
2022-07-12 14:25:14.959170,116
2022-07-12 14:25:14.960552,104
2022-07-12 14:25:14.962321,107
2022-07-12 14:25:14.963735,128
2022-07-12 14:25:14.965109,93
2022-07-12 14:25:14.966477,62
2022-07-12 14:25:14.967861,86
2022-07-12 14:25:14.969270,97
2022-07-12 14:25:14.970630,93
2022-07-12 14:25:14.972040,83
2022-07-12 14:25:14.973482,60
2022-07-12 14:25:14.974941,69
2022-07-12 14:25:14.976791,97
2022-07-12 14:25:14.978254,83
2022-07-12 14:25:14.979624,27
2022-07-12 14:25:14.981029,-4
2022-07-12 14:25:14.982398,163
2022-07-12 14:25:14.984594,809
2022-07-12 14:25:14.986731,1678
2022-07-12 14:25:14.988507,1566
2022-07-12 14:25:14.989922,438
2022-07-12 14:25:14.991577,-39
2022-07-12 14:25:15.129161,244
2022-07-12 14:25:15.131007,163
2022-07-12 14:25:15.132482,-39
2022-07-12 14:25:15.133870,53
2022-07-12 14:25:15.135538,79
2022-07-12 14:25:15.137194,-20
2022-07-12 14:25:15.138651,-20
2022-07-12 14:25:15.140082,37
2022-07-12 14:25:15.141475,44
2022-07-12 14:25:15.142986,39
2022-07-12 14:25:15.144425,44
2022-07-12 14:25:15.145847,13
2022-07-12 14:25:15.147219,4
2022-07-12 14:25:15.148737,20
2022-07-12 14:25:15.150143,-13
2022-07-12 14:25:15.151569,-53
2022-07-12 14:25:15.154008,-44
2022-07-12 14:25:15.156442,-25
2022-07-12 14:25:15.158666,-16
2022-07-12 14:25:15.161332,6
2022-07-12 14:25:15.164363,32
2022-07-12 14:25:15.166729,30
2022-07-12 14:25:15.168750,23
2022-07-12 14:25:15.170859,27
2022-07-12 14:25:15.172346,39
2022-07-12 14:25:15.173743,60
2022-07-12 14:25:15.175782,72
2022-07-12 14:25:15.179633,69
2022-07-12 14:25:15.181269,55
2022-07-12 14:25:15.182704,11
2022-07-12 14:25:15.354246,-23
2022-07-12 14:25:15.356078,-18
2022-07-12 14:25:15.357482,-25
2022-07-12 14:25:15.358842,-69
2022-07-12 14:25:15.360325,-135
2022-07-12 14:25:15.361699,-165
2022-07-12 14:25:15.363104,-151
2022-07-12 14:25:15.364464,-137
2022-07-12 14:25:15.365859,-135
2022-07-12 14:25:15.367475,-146
2022-07-12 14:25:15.369098,-181
2022-07-12 14:25:15.370576,-191
2022-07-12 14:25:15.371969,-160
2022-07-12 14:25:15.373333,-130
2022-07-12 14:25:15.374723,-116
2022-07-12 14:25:15.376212,-128
2022-07-12 14:25:15.377635,-144
2022-07-12 14:25:15.379206,-142
2022-07-12 14:25:15.380696,-114
2022-07-12 14:25:15.382101,-81
2022-07-12 14:25:15.383484,-67
2022-07-12 14:25:15.385425,-65
2022-07-12 14:25:15.387097,-69
2022-07-12 14:25:15.388528,-53
2022-07-12 14:25:15.391142,-16
2022-07-12 14:25:15.393584,4
2022-07-12 14:25:15.395107,18
2022-07-12 14:25:15.396467,18
2022-07-12 14:25:15.397812,6
2022-07-12 14:25:15.399158,25
2022-07-12 14:25:15.624886,58
2022-07-12 14:25:15.627130,74
2022-07-12 14:25:15.628893,81
2022-07-12 14:25:15.630462,51
2022-07-12 14:25:15.632198,11
2022-07-12 14:25:15.633868,25
2022-07-12 14:25:15.635419,60
2022-07-12 14:25:15.636851,79
2022-07-12 14:25:15.638517,81
2022-07-12 14:25:15.640005,58
2022-07-12 14:25:15.641356,23
2022-07-12 14:25:15.642700,34
2022-07-12 14:25:15.644036,76
2022-07-12 14:25:15.645369,93
2022-07-12 14:25:15.646704,97
2022-07-12 14:25:15.648082,93
2022-07-12 14:25:15.649547,81
2022-07-12 14:25:15.651068,86
2022-07-12 14:25:15.652537,81
2022-07-12 14:25:15.653930,67
2022-07-12 14:25:15.655311,81
2022-07-12 14:25:15.656689,74
2022-07-12 14:25:15.658217,62
2022-07-12 14:25:15.659738,88
2022-07-12 14:25:15.661884,107
2022-07-12 14:25:15.663511,121
2022-07-12 14:25:15.665074,139
2022-07-12 14:25:15.666529,142
2022-07-12 14:25:15.667955,163
2022-07-12 14:25:15.669363,202
2022-07-12 14:25:15.849113,209
2022-07-12 14:25:15.851860,202
2022-07-12 14:25:15.853491,209
2022-07-12 14:25:15.854958,198
2022-07-12 14:25:15.856469,142
2022-07-12 14:25:15.857948,86
2022-07-12 14:25:15.860648,69
2022-07-12 14:25:15.862499,86
2022-07-12 14:25:15.864311,79
2022-07-12 14:25:15.865848,27
2022-07-12 14:25:15.868268,16
2022-07-12 14:25:15.869862,60
2022-07-12 14:25:15.871382,81
2022-07-12 14:25:15.872857,60
2022-07-12 14:25:15.874508,-11
2022-07-12 14:25:15.876698,-65
2022-07-12 14:25:15.878293,165
2022-07-12 14:25:15.879848,892
2022-07-12 14:25:15.881346,1571
2022-07-12 14:25:15.884020,1140
2022-07-12 14:25:15.886731,97
2022-07-12 14:25:15.888909,-86
2022-07-12 14:25:15.890783,179
2022-07-12 14:25:15.892908,20
2022-07-12 14:25:15.894400,-93
2022-07-12 14:25:15.895863,23
2022-07-12 14:25:15.898563,9
2022-07-12 14:25:15.902524,-58
2022-07-12 14:25:15.904153,-4
2022-07-12 14:25:15.905600,51
2022-07-12 14:25:16.074085,37
2022-07-12 14:25:16.076580,20
2022-07-12 14:25:16.078240,6
2022-07-12 14:25:16.079705,-11
2022-07-12 14:25:16.081142,6
2022-07-12 14:25:16.082645,37
2022-07-12 14:25:16.085160,53
2022-07-12 14:25:16.086724,60
2022-07-12 14:25:16.088400,25
2022-07-12 14:25:16.089903,-2
2022-07-12 14:25:16.091565,23
2022-07-12 14:25:16.093784,58
2022-07-12 14:25:16.095278,79
2022-07-12 14:25:16.096761,76
2022-07-12 14:25:16.098209,39
2022-07-12 14:25:16.100832,6
2022-07-12 14:25:16.102460,9
2022-07-12 14:25:16.103914,13
2022-07-12 14:25:16.105337,-2
2022-07-12 14:25:16.106850,-20
2022-07-12 14:25:16.109908,-55
2022-07-12 14:25:16.112280,-100
2022-07-12 14:25:16.114801,-114
2022-07-12 14:25:16.118629,-109
2022-07-12 14:25:16.120345,-104
2022-07-12 14:25:16.121949,-107
2022-07-12 14:25:16.124226,-130
2022-07-12 14:25:16.126197,-146
2022-07-12 14:25:16.127681,-135
2022-07-12 14:25:16.129186,-125
2022-07-12 14:25:16.299172,-114
2022-07-12 14:25:16.301798,-109
2022-07-12 14:25:16.303382,-109
2022-07-12 14:25:16.304833,-100
2022-07-12 14:25:16.306270,-81
2022-07-12 14:25:16.308498,-55
2022-07-12 14:25:16.310890,-44
2022-07-12 14:25:16.312606,-72
2022-07-12 14:25:16.315098,-93
2022-07-12 14:25:16.317616,-90
2022-07-12 14:25:16.319252,-114
2022-07-12 14:25:16.321344,-156
2022-07-12 14:25:16.323290,-160
2022-07-12 14:25:16.325053,-158
2022-07-12 14:25:16.326654,-177
2022-07-12 14:25:16.328152,-165
2022-07-12 14:25:16.329599,-128
2022-07-12 14:25:16.331264,-104
2022-07-12 14:25:16.332801,-86
2022-07-12 14:25:16.335593,-74
2022-07-12 14:25:16.338124,-74
2022-07-12 14:25:16.340790,-58
2022-07-12 14:25:16.343056,-39
2022-07-12 14:25:16.344625,-25
2022-07-12 14:25:16.346091,-41
2022-07-12 14:25:16.348503,-74
2022-07-12 14:25:16.351511,-60
2022-07-12 14:25:16.353290,-32
2022-07-12 14:25:16.354784,-20
2022-07-12 14:25:16.356220,2
2022-07-12 14:25:16.524129,18
2022-07-12 14:25:16.525867,20
2022-07-12 14:25:16.527249,32
2022-07-12 14:25:16.528608,39
2022-07-12 14:25:16.529950,51
2022-07-12 14:25:16.531286,69
2022-07-12 14:25:16.532619,58
2022-07-12 14:25:16.534178,23
2022-07-12 14:25:16.535636,20
2022-07-12 14:25:16.537379,41
2022-07-12 14:25:16.538818,46
2022-07-12 14:25:16.540215,60
2022-07-12 14:25:16.541543,69
2022-07-12 14:25:16.542881,58
2022-07-12 14:25:16.544240,88
2022-07-12 14:25:16.545622,116
2022-07-12 14:25:16.546985,97
2022-07-12 14:25:16.548421,102
2022-07-12 14:25:16.549983,118
2022-07-12 14:25:16.551375,102
2022-07-12 14:25:16.552742,93
2022-07-12 14:25:16.554103,97
2022-07-12 14:25:16.555550,111
2022-07-12 14:25:16.556941,125
2022-07-12 14:25:16.558330,130
2022-07-12 14:25:16.560221,125
2022-07-12 14:25:16.562438,102
2022-07-12 14:25:16.564417,76
2022-07-12 14:25:16.565891,76
2022-07-12 14:25:16.567256,55
2022-07-12 14:25:16.749168,16
2022-07-12 14:25:16.750893,81
2022-07-12 14:25:16.752273,466
2022-07-12 14:25:16.753622,1196
2022-07-12 14:25:16.754967,1499
2022-07-12 14:25:16.756305,715
2022-07-12 14:25:16.757636,-81
2022-07-12 14:25:16.758970,55
2022-07-12 14:25:16.760412,221
2022-07-12 14:25:16.761810,-18
2022-07-12 14:25:16.764166,-46
2022-07-12 14:25:16.766035,39
2022-07-12 14:25:16.767522,-62
2022-07-12 14:25:16.768937,-107
2022-07-12 14:25:16.770289,-41
2022-07-12 14:25:16.771664,-76
2022-07-12 14:25:16.773012,-149
2022-07-12 14:25:16.774362,-142
2022-07-12 14:25:16.775816,-109
2022-07-12 14:25:16.777300,-93
2022-07-12 14:25:16.778688,-69
2022-07-12 14:25:16.780065,-41
2022-07-12 14:25:16.781468,-30
2022-07-12 14:25:16.782908,-13
2022-07-12 14:25:16.784785,2
2022-07-12 14:25:16.786446,18
2022-07-12 14:25:16.788590,44
2022-07-12 14:25:16.790422,41
2022-07-12 14:25:16.791849,-4
2022-07-12 14:25:16.793211,-46
2022-07-12 14:25:17.062938,-58
2022-07-12 14:25:17.064760,-58
2022-07-12 14:25:17.066371,-72
2022-07-12 14:25:17.067799,-79
2022-07-12 14:25:17.069355,-79
2022-07-12 14:25:17.071991,-111
2022-07-12 14:25:17.073520,-128
2022-07-12 14:25:17.074932,-95
2022-07-12 14:25:17.076406,-74
2022-07-12 14:25:17.078368,-81
2022-07-12 14:25:17.080401,-100
2022-07-12 14:25:17.081856,-135
2022-07-12 14:25:17.083261,-151
2022-07-12 14:25:17.084751,-137
2022-07-12 14:25:17.086958,-123
2022-07-12 14:25:17.088862,-130
2022-07-12 14:25:17.090321,-132
2022-07-12 14:25:17.091693,-121
2022-07-12 14:25:17.093056,-104
2022-07-12 14:25:17.095461,-76
2022-07-12 14:25:17.097213,-51
2022-07-12 14:25:17.100628,-46
2022-07-12 14:25:17.103481,-39
2022-07-12 14:25:17.105502,-32
2022-07-12 14:25:17.106989,-16
2022-07-12 14:25:17.108491,11
2022-07-12 14:25:17.110405,23
2022-07-12 14:25:17.112471,27
2022-07-12 14:25:17.114875,34
2022-07-12 14:25:17.117410,32
2022-07-12 14:25:17.244054,23
2022-07-12 14:25:17.246069,9
2022-07-12 14:25:17.247606,18
2022-07-12 14:25:17.249072,25
2022-07-12 14:25:17.250541,-11
2022-07-12 14:25:17.252087,-34
2022-07-12 14:25:17.253811,-11
2022-07-12 14:25:17.256528,20
2022-07-12 14:25:17.258115,32
2022-07-12 14:25:17.259543,32
2022-07-12 14:25:17.261380,37
2022-07-12 14:25:17.263419,51
2022-07-12 14:25:17.264910,67
2022-07-12 14:25:17.266291,95
2022-07-12 14:25:17.267788,107
2022-07-12 14:25:17.269271,93
2022-07-12 14:25:17.271654,58
2022-07-12 14:25:17.273271,37
2022-07-12 14:25:17.274762,65
2022-07-12 14:25:17.276198,90
2022-07-12 14:25:17.278033,90
2022-07-12 14:25:17.281143,53
2022-07-12 14:25:17.283217,-16
2022-07-12 14:25:17.284744,-18
2022-07-12 14:25:17.286599,30
2022-07-12 14:25:17.288804,48
2022-07-12 14:25:17.290341,53
2022-07-12 14:25:17.291793,51
2022-07-12 14:25:17.293147,39
2022-07-12 14:25:17.295091,48
2022-07-12 14:25:17.469066,69
2022-07-12 14:25:17.471126,88
2022-07-12 14:25:17.473366,79
2022-07-12 14:25:17.474874,48
2022-07-12 14:25:17.476955,51
2022-07-12 14:25:17.479097,72
2022-07-12 14:25:17.481364,74
2022-07-12 14:25:17.483180,88
2022-07-12 14:25:17.484657,109
2022-07-12 14:25:17.486123,86
2022-07-12 14:25:17.488570,37
2022-07-12 14:25:17.490356,44
2022-07-12 14:25:17.491841,86
2022-07-12 14:25:17.493326,100
2022-07-12 14:25:17.495384,104
2022-07-12 14:25:17.497678,76
2022-07-12 14:25:17.499225,37
2022-07-12 14:25:17.500736,60
2022-07-12 14:25:17.502404,83
2022-07-12 14:25:17.504475,44
2022-07-12 14:25:17.507060,-2
2022-07-12 14:25:17.509289,88
2022-07-12 14:25:17.511092,601
2022-07-12 14:25:17.513581,1489
2022-07-12 14:25:17.515920,1660
2022-07-12 14:25:17.518021,620
2022-07-12 14:25:17.519779,-109
2022-07-12 14:25:17.521309,111
2022-07-12 14:25:17.522789,123
2022-07-12 14:25:17.524316,-132
2022-07-12 14:25:17.694118,-65
2022-07-12 14:25:17.696189,27
2022-07-12 14:25:17.698329,-41
2022-07-12 14:25:17.699809,-67
2022-07-12 14:25:17.701245,-60
2022-07-12 14:25:17.702669,-79
2022-07-12 14:25:17.705271,-67
2022-07-12 14:25:17.706965,-30
2022-07-12 14:25:17.708714,-39
2022-07-12 14:25:17.710191,-88
2022-07-12 14:25:17.711876,-93
2022-07-12 14:25:17.714159,-79
2022-07-12 14:25:17.715682,-83
2022-07-12 14:25:17.717146,-88
2022-07-12 14:25:17.718612,-130
2022-07-12 14:25:17.721028,-181
2022-07-12 14:25:17.722709,-172
2022-07-12 14:25:17.724176,-135
2022-07-12 14:25:17.725609,-116
2022-07-12 14:25:17.727089,-104
2022-07-12 14:25:17.730279,-100
2022-07-12 14:25:17.731907,-109
2022-07-12 14:25:17.734225,-104
2022-07-12 14:25:17.736240,-72
2022-07-12 14:25:17.738405,-51
2022-07-12 14:25:17.739919,-41
2022-07-12 14:25:17.741385,-41
2022-07-12 14:25:17.742855,-88
2022-07-12 14:25:17.745444,-130
2022-07-12 14:25:17.747781,-114
2022-07-12 14:25:17.964126,-81
2022-07-12 14:25:17.965877,-76
2022-07-12 14:25:17.967489,-95
2022-07-12 14:25:17.970100,-116
2022-07-12 14:25:17.971718,-109
2022-07-12 14:25:17.973172,-97
2022-07-12 14:25:17.974658,-107
2022-07-12 14:25:17.976297,-142
2022-07-12 14:25:17.978866,-179
2022-07-12 14:25:17.980411,-191
2022-07-12 14:25:17.981845,-167
2022-07-12 14:25:17.983259,-128
2022-07-12 14:25:17.985813,-102
2022-07-12 14:25:17.987634,-102
2022-07-12 14:25:17.989143,-125
2022-07-12 14:25:17.990584,-144
2022-07-12 14:25:17.992061,-118
2022-07-12 14:25:17.994402,-76
2022-07-12 14:25:17.995952,-58
2022-07-12 14:25:17.998630,-44
2022-07-12 14:25:18.002248,-44
2022-07-12 14:25:18.004709,-48
2022-07-12 14:25:18.006248,-20
2022-07-12 14:25:18.007762,9
2022-07-12 14:25:18.010396,30
2022-07-12 14:25:18.011996,41
2022-07-12 14:25:18.013541,37
2022-07-12 14:25:18.015734,39
2022-07-12 14:25:18.018906,58
2022-07-12 14:25:18.020619,81
2022-07-12 14:25:18.189131,100
2022-07-12 14:25:18.190861,100
2022-07-12 14:25:18.192516,95
2022-07-12 14:25:18.193966,95
2022-07-12 14:25:18.195343,104
2022-07-12 14:25:18.196747,125
2022-07-12 14:25:18.198131,137
2022-07-12 14:25:18.199536,151
2022-07-12 14:25:18.201267,137
2022-07-12 14:25:18.202966,95
2022-07-12 14:25:18.204442,97
2022-07-12 14:25:18.205848,130
2022-07-12 14:25:18.207236,132
2022-07-12 14:25:18.209049,100
2022-07-12 14:25:18.210830,67
2022-07-12 14:25:18.212349,72
2022-07-12 14:25:18.213742,95
2022-07-12 14:25:18.215224,107
2022-07-12 14:25:18.216600,111
2022-07-12 14:25:18.218042,83
2022-07-12 14:25:18.219444,60
2022-07-12 14:25:18.220930,69
2022-07-12 14:25:18.222343,81
2022-07-12 14:25:18.223739,95
2022-07-12 14:25:18.226373,100
2022-07-12 14:25:18.228847,95
2022-07-12 14:25:18.230874,107
2022-07-12 14:25:18.232906,130
2022-07-12 14:25:18.235211,167
2022-07-12 14:25:18.236746,198
2022-07-12 14:25:18.414233,184
2022-07-12 14:25:18.416086,163
2022-07-12 14:25:18.417535,144
2022-07-12 14:25:18.418948,90
2022-07-12 14:25:18.420332,41
2022-07-12 14:25:18.421711,51
2022-07-12 14:25:18.423088,60
2022-07-12 14:25:18.424481,41
2022-07-12 14:25:18.426564,44
2022-07-12 14:25:18.428699,62
2022-07-12 14:25:18.430186,34
2022-07-12 14:25:18.431556,-9
2022-07-12 14:25:18.432914,-51
2022-07-12 14:25:18.435515,-102
2022-07-12 14:25:18.437025,-151
2022-07-12 14:25:18.438595,-139
2022-07-12 14:25:18.440033,151
2022-07-12 14:25:18.441596,958
2022-07-12 14:25:18.443866,1625
2022-07-12 14:25:18.445362,1042
2022-07-12 14:25:18.446732,-51
2022-07-12 14:25:18.448127,-165
2022-07-12 14:25:18.452029,86
2022-07-12 14:25:18.454512,-121
2022-07-12 14:25:18.456038,-230
2022-07-12 14:25:18.457644,-102
2022-07-12 14:25:18.459905,-104
2022-07-12 14:25:18.461386,-156
2022-07-12 14:25:18.463001,-139
2022-07-12 14:25:18.465466,-137
2022-07-12 14:25:18.594293,-167
2022-07-12 14:25:18.596592,-184
2022-07-12 14:25:18.598062,-165
2022-07-12 14:25:18.599459,-158
2022-07-12 14:25:18.601016,-151
2022-07-12 14:25:18.603372,-146
2022-07-12 14:25:18.605084,-172
2022-07-12 14:25:18.606515,-177
2022-07-12 14:25:18.608017,-139
2022-07-12 14:25:18.609511,-125
2022-07-12 14:25:18.611737,-116
2022-07-12 14:25:18.613397,-88
2022-07-12 14:25:18.614889,-86
2022-07-12 14:25:18.616346,-107
2022-07-12 14:25:18.617814,-102
2022-07-12 14:25:18.620430,-79
2022-07-12 14:25:18.621935,-74
2022-07-12 14:25:18.623305,-90
2022-07-12 14:25:18.624659,-109
2022-07-12 14:25:18.626784,-100
2022-07-12 14:25:18.629889,-67
2022-07-12 14:25:18.632340,-53
2022-07-12 14:25:18.635241,-39
2022-07-12 14:25:18.637087,-11
2022-07-12 14:25:18.638538,-9
2022-07-12 14:25:18.639899,-4
2022-07-12 14:25:18.641250,9
2022-07-12 14:25:18.643553,2
2022-07-12 14:25:18.645138,-2
2022-07-12 14:25:18.646588,0
2022-07-12 14:25:18.819133,-2
2022-07-12 14:25:18.821540,13
2022-07-12 14:25:18.823299,32
2022-07-12 14:25:18.824744,30
2022-07-12 14:25:18.826127,25
2022-07-12 14:25:18.827498,4
2022-07-12 14:25:18.828867,-16
2022-07-12 14:25:18.831029,4
2022-07-12 14:25:18.833454,9
2022-07-12 14:25:18.835001,-51
2022-07-12 14:25:18.836458,-104
2022-07-12 14:25:18.837895,-100
2022-07-12 14:25:18.839312,-93
2022-07-12 14:25:18.840742,-76
2022-07-12 14:25:18.842156,-69
2022-07-12 14:25:18.843713,-97
2022-07-12 14:25:18.845263,-104
2022-07-12 14:25:18.846963,-88
2022-07-12 14:25:18.849248,-83
2022-07-12 14:25:18.850732,-62
2022-07-12 14:25:18.852147,-32
2022-07-12 14:25:18.853543,-13
2022-07-12 14:25:18.855504,-6
2022-07-12 14:25:18.857690,0
2022-07-12 14:25:18.859582,18
2022-07-12 14:25:18.861067,39
2022-07-12 14:25:18.862476,55
2022-07-12 14:25:18.863915,65
2022-07-12 14:25:18.865458,62
2022-07-12 14:25:18.867858,67
2022-07-12 14:25:19.087791,88
2022-07-12 14:25:19.089528,111
2022-07-12 14:25:19.091494,123
2022-07-12 14:25:19.093042,111
2022-07-12 14:25:19.094462,79
2022-07-12 14:25:19.095867,55
2022-07-12 14:25:19.097270,67
2022-07-12 14:25:19.098852,95
2022-07-12 14:25:19.100971,104
2022-07-12 14:25:19.102473,95
2022-07-12 14:25:19.103875,74
2022-07-12 14:25:19.105264,46
2022-07-12 14:25:19.106661,62
2022-07-12 14:25:19.108200,95
2022-07-12 14:25:19.109699,95
2022-07-12 14:25:19.111110,83
2022-07-12 14:25:19.112661,67
2022-07-12 14:25:19.114075,46
2022-07-12 14:25:19.115589,60
2022-07-12 14:25:19.117045,97
2022-07-12 14:25:19.118498,130
2022-07-12 14:25:19.119944,144
2022-07-12 14:25:19.121348,130
2022-07-12 14:25:19.124578,121
2022-07-12 14:25:19.126737,135
2022-07-12 14:25:19.128251,156
2022-07-12 14:25:19.129732,153
2022-07-12 14:25:19.132033,123
2022-07-12 14:25:19.134373,109
2022-07-12 14:25:19.136924,123
2022-07-12 14:25:19.269201,142
2022-07-12 14:25:19.271267,160
2022-07-12 14:25:19.272728,158
2022-07-12 14:25:19.274153,114
2022-07-12 14:25:19.276296,41
2022-07-12 14:25:19.278513,9
2022-07-12 14:25:19.280058,0
2022-07-12 14:25:19.281541,-9
2022-07-12 14:25:19.283156,128
2022-07-12 14:25:19.285534,624
2022-07-12 14:25:19.287185,1282
2022-07-12 14:25:19.288621,1189
2022-07-12 14:25:19.290061,263
2022-07-12 14:25:19.291541,-151
2022-07-12 14:25:19.294199,86
2022-07-12 14:25:19.295793,-37
2022-07-12 14:25:19.297222,-272
2022-07-12 14:25:19.298731,-167
2022-07-12 14:25:19.300514,-118
2022-07-12 14:25:19.302863,-230
2022-07-12 14:25:19.304848,-254
2022-07-12 14:25:19.307271,-240
2022-07-12 14:25:19.310651,-277
2022-07-12 14:25:19.312205,-284
2022-07-12 14:25:19.314664,-233
2022-07-12 14:25:19.319631,-205
2022-07-12 14:25:19.321632,-202
2022-07-12 14:25:19.323594,-198
2022-07-12 14:25:19.326623,-188
2022-07-12 14:25:19.329023,-151
2022-07-12 14:25:19.539059,-114
2022-07-12 14:25:19.540795,-90
2022-07-12 14:25:19.542280,-86
2022-07-12 14:25:19.543907,-125
2022-07-12 14:25:19.545368,-142
2022-07-12 14:25:19.546871,-97
2022-07-12 14:25:19.548922,-60
2022-07-12 14:25:19.550486,-46
2022-07-12 14:25:19.552328,-48
2022-07-12 14:25:19.553947,-79
2022-07-12 14:25:19.555444,-88
2022-07-12 14:25:19.556962,-53
2022-07-12 14:25:19.558436,-23
2022-07-12 14:25:19.559923,-11
2022-07-12 14:25:19.561461,-9
2022-07-12 14:25:19.563131,-18
2022-07-12 14:25:19.565436,-20
2022-07-12 14:25:19.566952,-2
2022-07-12 14:25:19.568518,9
2022-07-12 14:25:19.570150,13
2022-07-12 14:25:19.571634,2
2022-07-12 14:25:19.573142,-41
2022-07-12 14:25:19.575857,-65
2022-07-12 14:25:19.578102,-34
2022-07-12 14:25:19.580292,-9
2022-07-12 14:25:19.582206,6
2022-07-12 14:25:19.585120,13
2022-07-12 14:25:19.587055,0
2022-07-12 14:25:19.588800,9
2022-07-12 14:25:19.590390,37
2022-07-12 14:25:19.764370,62
2022-07-12 14:25:19.766217,79
2022-07-12 14:25:19.767639,72
2022-07-12 14:25:19.769016,58
2022-07-12 14:25:19.770389,67
2022-07-12 14:25:19.771756,95
2022-07-12 14:25:19.773339,116
2022-07-12 14:25:19.774780,114
2022-07-12 14:25:19.776175,79
2022-07-12 14:25:19.777903,37
2022-07-12 14:25:19.779474,51
2022-07-12 14:25:19.780974,86
2022-07-12 14:25:19.782507,90
2022-07-12 14:25:19.783985,88
2022-07-12 14:25:19.785379,62
2022-07-12 14:25:19.786778,27
2022-07-12 14:25:19.788143,44
2022-07-12 14:25:19.789904,72
2022-07-12 14:25:19.791342,81
2022-07-12 14:25:19.792779,97
2022-07-12 14:25:19.794161,93
2022-07-12 14:25:19.795646,32
2022-07-12 14:25:19.797136,-18
2022-07-12 14:25:19.798574,-20
2022-07-12 14:25:19.800313,-9
2022-07-12 14:25:19.802591,-6
2022-07-12 14:25:19.805320,-11
2022-07-12 14:25:19.806820,-6
2022-07-12 14:25:19.808261,9
2022-07-12 14:25:19.809706,37
2022-07-12 14:25:19.989214,51
2022-07-12 14:25:19.991005,51
2022-07-12 14:25:19.992425,46
2022-07-12 14:25:19.993790,37
2022-07-12 14:25:19.995164,55
2022-07-12 14:25:19.996528,97
2022-07-12 14:25:19.998152,130
2022-07-12 14:25:19.999794,128
2022-07-12 14:25:20.001242,81
2022-07-12 14:25:20.003072,58
2022-07-12 14:25:20.004515,81
2022-07-12 14:25:20.005947,97
2022-07-12 14:25:20.007365,88
2022-07-12 14:25:20.008749,53
2022-07-12 14:25:20.010156,13
2022-07-12 14:25:20.011577,16
2022-07-12 14:25:20.012960,37
2022-07-12 14:25:20.014660,58
2022-07-12 14:25:20.016153,67
2022-07-12 14:25:20.017607,46
2022-07-12 14:25:20.018990,20
2022-07-12 14:25:20.020398,-2
2022-07-12 14:25:20.021881,-25
2022-07-12 14:25:20.023323,11
2022-07-12 14:25:20.025768,237
2022-07-12 14:25:20.027867,823
2022-07-12 14:25:20.029941,1389
2022-07-12 14:25:20.031683,990
2022-07-12 14:25:20.033351,6
2022-07-12 14:25:20.035689,-153
2022-07-12 14:25:20.214205,153
2022-07-12 14:25:20.216583,-11
2022-07-12 14:25:20.218120,-186
2022-07-12 14:25:20.219517,-67
2022-07-12 14:25:20.220904,-51
2022-07-12 14:25:20.222620,-123
2022-07-12 14:25:20.224836,-137
2022-07-12 14:25:20.226326,-172
2022-07-12 14:25:20.228034,-216
2022-07-12 14:25:20.229483,-214
2022-07-12 14:25:20.231208,-186
2022-07-12 14:25:20.233209,-165
2022-07-12 14:25:20.234633,-174
2022-07-12 14:25:20.236042,-191
2022-07-12 14:25:20.237425,-179
2022-07-12 14:25:20.239513,-156
2022-07-12 14:25:20.241267,-137
2022-07-12 14:25:20.242657,-114
2022-07-12 14:25:20.244032,-97
2022-07-12 14:25:20.245415,-90
2022-07-12 14:25:20.247092,-74
2022-07-12 14:25:20.250046,-55
2022-07-12 14:25:20.252461,-41
2022-07-12 14:25:20.254663,-23
2022-07-12 14:25:20.256894,-13
2022-07-12 14:25:20.258396,-30
2022-07-12 14:25:20.259779,-86
2022-07-12 14:25:20.261156,-158
2022-07-12 14:25:20.262997,-158
2022-07-12 14:25:20.264894,-111
2022-07-12 14:25:20.528484,-107
2022-07-12 14:25:20.530283,-104
2022-07-12 14:25:20.531949,-83
2022-07-12 14:25:20.533486,-88
2022-07-12 14:25:20.534925,-93
2022-07-12 14:25:20.536352,-90
2022-07-12 14:25:20.537772,-125
2022-07-12 14:25:20.539179,-149
2022-07-12 14:25:20.540582,-114
2022-07-12 14:25:20.542063,-86
2022-07-12 14:25:20.543518,-83
2022-07-12 14:25:20.544908,-72
2022-07-12 14:25:20.546285,-88
2022-07-12 14:25:20.547653,-116
2022-07-12 14:25:20.549018,-102
2022-07-12 14:25:20.550416,-83
2022-07-12 14:25:20.551791,-74
2022-07-12 14:25:20.553290,-53
2022-07-12 14:25:20.554779,-46
2022-07-12 14:25:20.556250,-27
2022-07-12 14:25:20.557745,2
2022-07-12 14:25:20.559127,13
2022-07-12 14:25:20.560506,23
2022-07-12 14:25:20.561874,37
2022-07-12 14:25:20.563485,41
2022-07-12 14:25:20.565617,58
2022-07-12 14:25:20.567131,79
2022-07-12 14:25:20.568703,81
2022-07-12 14:25:20.570106,69
2022-07-12 14:25:20.571446,39
2022-07-12 14:25:20.665062,23
2022-07-12 14:25:20.667298,53
2022-07-12 14:25:20.669122,76
2022-07-12 14:25:20.670749,72
2022-07-12 14:25:20.672317,69
2022-07-12 14:25:20.673869,69
2022-07-12 14:25:20.675469,55
2022-07-12 14:25:20.677127,53
2022-07-12 14:25:20.678810,76
2022-07-12 14:25:20.680376,93
2022-07-12 14:25:20.681848,93
2022-07-12 14:25:20.683295,67
2022-07-12 14:25:20.684721,46
2022-07-12 14:25:20.686142,88
2022-07-12 14:25:20.687653,107
2022-07-12 14:25:20.689031,83
2022-07-12 14:25:20.690526,104
2022-07-12 14:25:20.692040,114
2022-07-12 14:25:20.693508,107
2022-07-12 14:25:20.695251,156
2022-07-12 14:25:20.696808,193
2022-07-12 14:25:20.698301,179
2022-07-12 14:25:20.699742,191
2022-07-12 14:25:20.702645,209
2022-07-12 14:25:20.705005,188
2022-07-12 14:25:20.706743,158
2022-07-12 14:25:20.708216,151
2022-07-12 14:25:20.709643,165
2022-07-12 14:25:20.711072,158
2022-07-12 14:25:20.712493,156
2022-07-12 14:25:20.889130,193
2022-07-12 14:25:20.890857,160
2022-07-12 14:25:20.892340,55
2022-07-12 14:25:20.893770,20
2022-07-12 14:25:20.895198,-18
2022-07-12 14:25:20.896617,-107
2022-07-12 14:25:20.898135,-39
2022-07-12 14:25:20.899779,422
2022-07-12 14:25:20.901293,1266
2022-07-12 14:25:20.903084,1587
2022-07-12 14:25:20.904550,648
2022-07-12 14:25:20.906043,-242
2022-07-12 14:25:20.907467,-76
2022-07-12 14:25:20.909034,58
2022-07-12 14:25:20.910496,-205
2022-07-12 14:25:20.911934,-209
2022-07-12 14:25:20.913342,-100
2022-07-12 14:25:20.914891,-146
2022-07-12 14:25:20.916358,-144
2022-07-12 14:25:20.917790,-74
2022-07-12 14:25:20.919287,-65
2022-07-12 14:25:20.920751,-76
2022-07-12 14:25:20.922190,-67
2022-07-12 14:25:20.923752,-51
2022-07-12 14:25:20.926529,-37
2022-07-12 14:25:20.928736,-58
2022-07-12 14:25:20.930276,-107
2022-07-12 14:25:20.931732,-100
2022-07-12 14:25:20.933220,-72
2022-07-12 14:25:20.935156,-104
2022-07-12 14:25:21.157805,-146
2022-07-12 14:25:21.159798,-142
2022-07-12 14:25:21.161367,-130
2022-07-12 14:25:21.162789,-167
2022-07-12 14:25:21.164316,-200
2022-07-12 14:25:21.165771,-160
2022-07-12 14:25:21.167225,-114
2022-07-12 14:25:21.168670,-107
2022-07-12 14:25:21.170112,-97
2022-07-12 14:25:21.171808,-111
2022-07-12 14:25:21.173248,-146
2022-07-12 14:25:21.174914,-132
2022-07-12 14:25:21.176352,-81
2022-07-12 14:25:21.177817,-51
2022-07-12 14:25:21.179253,-41
2022-07-12 14:25:21.180668,-55
2022-07-12 14:25:21.182068,-69
2022-07-12 14:25:21.183628,-60
2022-07-12 14:25:21.185039,-44
2022-07-12 14:25:21.186425,-37
2022-07-12 14:25:21.187837,-34
2022-07-12 14:25:21.189279,-48
2022-07-12 14:25:21.190684,-55
2022-07-12 14:25:21.192096,-27
2022-07-12 14:25:21.194393,9
2022-07-12 14:25:21.196739,27
2022-07-12 14:25:21.198698,37
2022-07-12 14:25:21.200226,30
2022-07-12 14:25:21.201780,25
2022-07-12 14:25:21.204299,51
2022-07-12 14:25:21.384102,81
2022-07-12 14:25:21.385854,95
2022-07-12 14:25:21.387368,88
2022-07-12 14:25:21.388843,46
2022-07-12 14:25:21.390284,2
2022-07-12 14:25:21.391769,-13
2022-07-12 14:25:21.393304,-37
2022-07-12 14:25:21.394878,-88
2022-07-12 14:25:21.396479,-153
2022-07-12 14:25:21.398421,-188
2022-07-12 14:25:21.399994,-163
2022-07-12 14:25:21.401520,-125
2022-07-12 14:25:21.402975,-121
2022-07-12 14:25:21.404380,-109
2022-07-12 14:25:21.405771,-90
2022-07-12 14:25:21.407149,-102
2022-07-12 14:25:21.408497,-95
2022-07-12 14:25:21.410073,-48
2022-07-12 14:25:21.411457,-25
2022-07-12 14:25:21.412803,-16
2022-07-12 14:25:21.414181,-9
2022-07-12 14:25:21.415623,-20
2022-07-12 14:25:21.417027,-13
2022-07-12 14:25:21.418379,18
2022-07-12 14:25:21.420822,44
2022-07-12 14:25:21.423136,60
2022-07-12 14:25:21.425151,60
2022-07-12 14:25:21.426604,44
2022-07-12 14:25:21.427958,46
2022-07-12 14:25:21.429303,69
2022-07-12 14:25:21.609090,88
2022-07-12 14:25:21.610804,111
2022-07-12 14:25:21.612265,130
2022-07-12 14:25:21.613630,139
2022-07-12 14:25:21.615025,160
2022-07-12 14:25:21.616524,179
2022-07-12 14:25:21.617927,163
2022-07-12 14:25:21.619307,128
2022-07-12 14:25:21.620755,74
2022-07-12 14:25:21.622529,18
2022-07-12 14:25:21.623948,23
2022-07-12 14:25:21.625326,62
2022-07-12 14:25:21.626688,81
2022-07-12 14:25:21.628044,83
2022-07-12 14:25:21.629424,62
2022-07-12 14:25:21.630831,37
2022-07-12 14:25:21.632223,48
2022-07-12 14:25:21.633683,65
2022-07-12 14:25:21.635131,44
2022-07-12 14:25:21.636563,-11
2022-07-12 14:25:21.637958,-27
2022-07-12 14:25:21.639346,214
2022-07-12 14:25:21.640760,993
2022-07-12 14:25:21.642193,1788
2022-07-12 14:25:21.643590,1387
2022-07-12 14:25:21.645556,247
2022-07-12 14:25:21.647644,-20
2022-07-12 14:25:21.649592,226
2022-07-12 14:25:21.651053,51
2022-07-12 14:25:21.652421,-79
2022-07-12 14:25:21.878574,53
2022-07-12 14:25:21.880327,58
2022-07-12 14:25:21.881817,-18
2022-07-12 14:25:21.883238,-16
2022-07-12 14:25:21.884640,-20
2022-07-12 14:25:21.886019,-30
2022-07-12 14:25:21.887385,-6
2022-07-12 14:25:21.888765,-18
2022-07-12 14:25:21.890203,-79
2022-07-12 14:25:21.891980,-130
2022-07-12 14:25:21.893437,-151
2022-07-12 14:25:21.894879,-121
2022-07-12 14:25:21.896274,-107
2022-07-12 14:25:21.897689,-184
2022-07-12 14:25:21.899215,-237
2022-07-12 14:25:21.900646,-200
2022-07-12 14:25:21.902033,-163
2022-07-12 14:25:21.903615,-146
2022-07-12 14:25:21.905016,-125
2022-07-12 14:25:21.906438,-125
2022-07-12 14:25:21.907826,-156
2022-07-12 14:25:21.909276,-172
2022-07-12 14:25:21.910763,-177
2022-07-12 14:25:21.912248,-191
2022-07-12 14:25:21.914850,-184
2022-07-12 14:25:21.916392,-167
2022-07-12 14:25:21.918272,-158
2022-07-12 14:25:21.919685,-139
2022-07-12 14:25:21.921106,-111
2022-07-12 14:25:21.922490,-90
2022-07-12 14:25:22.059155,-86
2022-07-12 14:25:22.060924,-97
2022-07-12 14:25:22.062315,-104
2022-07-12 14:25:22.063678,-111
2022-07-12 14:25:22.065026,-109
2022-07-12 14:25:22.066371,-90
2022-07-12 14:25:22.067771,-95
2022-07-12 14:25:22.069196,-130
2022-07-12 14:25:22.070642,-135
2022-07-12 14:25:22.072063,-111
2022-07-12 14:25:22.073480,-104
2022-07-12 14:25:22.074862,-123
2022-07-12 14:25:22.076222,-160
2022-07-12 14:25:22.077587,-186
2022-07-12 14:25:22.078949,-177
2022-07-12 14:25:22.080470,-156
2022-07-12 14:25:22.081904,-142
2022-07-12 14:25:22.083434,-121
2022-07-12 14:25:22.084934,-107
2022-07-12 14:25:22.086354,-109
2022-07-12 14:25:22.087748,-95
2022-07-12 14:25:22.089144,-69
2022-07-12 14:25:22.090561,-53
2022-07-12 14:25:22.092136,-32
2022-07-12 14:25:22.093567,-18
2022-07-12 14:25:22.096341,-16
2022-07-12 14:25:22.098574,-2
2022-07-12 14:25:22.100502,16
2022-07-12 14:25:22.101904,27
2022-07-12 14:25:22.103253,46
2022-07-12 14:25:22.284100,51
2022-07-12 14:25:22.285936,58
2022-07-12 14:25:22.287421,72
2022-07-12 14:25:22.288844,79
2022-07-12 14:25:22.290276,86
2022-07-12 14:25:22.291698,93
2022-07-12 14:25:22.293110,69
2022-07-12 14:25:22.294572,46
2022-07-12 14:25:22.296030,65
2022-07-12 14:25:22.297798,83
2022-07-12 14:25:22.299322,83
2022-07-12 14:25:22.300735,83
2022-07-12 14:25:22.302131,53
2022-07-12 14:25:22.303547,4
2022-07-12 14:25:22.304970,-9
2022-07-12 14:25:22.306410,-4
2022-07-12 14:25:22.307836,4
2022-07-12 14:25:22.309345,11
2022-07-12 14:25:22.310773,-9
2022-07-12 14:25:22.312178,-13
2022-07-12 14:25:22.313584,34
2022-07-12 14:25:22.315045,58
2022-07-12 14:25:22.316481,39
2022-07-12 14:25:22.317889,44
2022-07-12 14:25:22.320806,60
2022-07-12 14:25:22.323342,62
2022-07-12 14:25:22.325723,60
2022-07-12 14:25:22.328051,60
2022-07-12 14:25:22.330374,72
2022-07-12 14:25:22.332474,83
2022-07-12 14:25:22.509134,83
2022-07-12 14:25:22.510917,97
2022-07-12 14:25:22.512360,118
2022-07-12 14:25:22.513774,121
2022-07-12 14:25:22.515183,102
2022-07-12 14:25:22.516597,32
2022-07-12 14:25:22.518039,-34
2022-07-12 14:25:22.519517,100
2022-07-12 14:25:22.521030,680
2022-07-12 14:25:22.522717,1534
2022-07-12 14:25:22.524240,1592
2022-07-12 14:25:22.525661,522
2022-07-12 14:25:22.527062,-135
2022-07-12 14:25:22.528472,121
2022-07-12 14:25:22.529956,121
2022-07-12 14:25:22.531425,-158
2022-07-12 14:25:22.532896,-123
2022-07-12 14:25:22.534486,-53
2022-07-12 14:25:22.536001,-104
2022-07-12 14:25:22.537524,-79
2022-07-12 14:25:22.538989,-23
2022-07-12 14:25:22.540517,-25
2022-07-12 14:25:22.541970,-23
2022-07-12 14:25:22.543374,2
2022-07-12 14:25:22.545053,16
2022-07-12 14:25:22.547335,23
2022-07-12 14:25:22.549183,18
2022-07-12 14:25:22.551152,6
2022-07-12 14:25:22.553298,11
2022-07-12 14:25:22.555543,18
2022-07-12 14:25:22.734123,27
2022-07-12 14:25:22.735966,53
2022-07-12 14:25:22.737409,67
2022-07-12 14:25:22.738855,60
2022-07-12 14:25:22.740260,37
2022-07-12 14:25:22.741652,4
2022-07-12 14:25:22.743046,4
2022-07-12 14:25:22.744474,32
2022-07-12 14:25:22.745995,44
2022-07-12 14:25:22.747739,32
2022-07-12 14:25:22.749187,6
2022-07-12 14:25:22.750597,-30
2022-07-12 14:25:22.751985,-44
2022-07-12 14:25:22.753415,-30
2022-07-12 14:25:22.754831,-30
2022-07-12 14:25:22.756267,-53
2022-07-12 14:25:22.757651,-67
2022-07-12 14:25:22.759238,-81
2022-07-12 14:25:22.760667,-109
2022-07-12 14:25:22.762113,-111
2022-07-12 14:25:22.763532,-100
2022-07-12 14:25:22.765009,-111
2022-07-12 14:25:22.766460,-121
2022-07-12 14:25:22.767895,-132
2022-07-12 14:25:22.769786,-174
2022-07-12 14:25:22.771983,-188
2022-07-12 14:25:22.774066,-158
2022-07-12 14:25:22.775661,-151
2022-07-12 14:25:22.777132,-167
2022-07-12 14:25:22.778547,-151
2022-07-12 14:25:22.959136,-114
2022-07-12 14:25:22.960842,-90
2022-07-12 14:25:22.962227,-79
2022-07-12 14:25:22.963581,-93
2022-07-12 14:25:22.964925,-128
2022-07-12 14:25:22.966323,-125
2022-07-12 14:25:22.967738,-86
2022-07-12 14:25:22.969109,-60
2022-07-12 14:25:22.970565,-53
2022-07-12 14:25:22.972034,-67
2022-07-12 14:25:22.973674,-100
2022-07-12 14:25:22.975073,-95
2022-07-12 14:25:22.976442,-55
2022-07-12 14:25:22.977805,-30
2022-07-12 14:25:22.979190,-23
2022-07-12 14:25:22.980574,-20
2022-07-12 14:25:22.981921,-9
2022-07-12 14:25:22.983450,11
2022-07-12 14:25:22.984923,27
2022-07-12 14:25:22.986382,16
2022-07-12 14:25:22.987778,-11
2022-07-12 14:25:22.989186,-27
2022-07-12 14:25:22.990595,-23
2022-07-12 14:25:22.991970,2
2022-07-12 14:25:22.993334,32
2022-07-12 14:25:22.995319,51
2022-07-12 14:25:22.996932,51
2022-07-12 14:25:22.999114,37
2022-07-12 14:25:23.000676,32
2022-07-12 14:25:23.002058,60
2022-07-12 14:25:23.272750,86
2022-07-12 14:25:23.274489,97
2022-07-12 14:25:23.275923,93
2022-07-12 14:25:23.277313,46
2022-07-12 14:25:23.278691,6
2022-07-12 14:25:23.280034,37
2022-07-12 14:25:23.281383,88
2022-07-12 14:25:23.282844,118
2022-07-12 14:25:23.284255,135
2022-07-12 14:25:23.285791,100
2022-07-12 14:25:23.287231,53
2022-07-12 14:25:23.288626,72
2022-07-12 14:25:23.290013,107
2022-07-12 14:25:23.291529,102
2022-07-12 14:25:23.292935,88
2022-07-12 14:25:23.294308,72
2022-07-12 14:25:23.295727,67
2022-07-12 14:25:23.297291,90
2022-07-12 14:25:23.298857,114
2022-07-12 14:25:23.300291,111
2022-07-12 14:25:23.301671,72
2022-07-12 14:25:23.303050,20
2022-07-12 14:25:23.304426,16
2022-07-12 14:25:23.305912,34
2022-07-12 14:25:23.307296,65
2022-07-12 14:25:23.309363,240
2022-07-12 14:25:23.311462,785
2022-07-12 14:25:23.313370,1457
2022-07-12 14:25:23.314829,1259
2022-07-12 14:25:23.316630,212
2022-07-12 14:25:23.454164,-181
2022-07-12 14:25:23.455898,156
2022-07-12 14:25:23.457355,88
2022-07-12 14:25:23.458713,-165
2022-07-12 14:25:23.460061,-76
2022-07-12 14:25:23.461403,11
2022-07-12 14:25:23.462737,-34
2022-07-12 14:25:23.464133,-20
2022-07-12 14:25:23.465578,-9
2022-07-12 14:25:23.467034,-65
2022-07-12 14:25:23.468845,-62
2022-07-12 14:25:23.470288,-27
2022-07-12 14:25:23.471650,-44
2022-07-12 14:25:23.472995,-60
2022-07-12 14:25:23.474350,-79
2022-07-12 14:25:23.475736,-111
2022-07-12 14:25:23.477093,-93
2022-07-12 14:25:23.478602,-51
2022-07-12 14:25:23.480057,-30
2022-07-12 14:25:23.481461,-18
2022-07-12 14:25:23.482879,-13
2022-07-12 14:25:23.484270,-23
2022-07-12 14:25:23.485679,-13
2022-07-12 14:25:23.487236,-9
2022-07-12 14:25:23.488740,-27
2022-07-12 14:25:23.491691,-30
2022-07-12 14:25:23.493846,-32
2022-07-12 14:25:23.495652,-60
2022-07-12 14:25:23.497027,-81
2022-07-12 14:25:23.498414,-76
2022-07-12 14:25:23.679213,-81
2022-07-12 14:25:23.681096,-116
2022-07-12 14:25:23.682578,-144
2022-07-12 14:25:23.684525,-151
2022-07-12 14:25:23.686106,-144
2022-07-12 14:25:23.687684,-125
2022-07-12 14:25:23.689088,-100
2022-07-12 14:25:23.690505,-118
2022-07-12 14:25:23.691894,-181
2022-07-12 14:25:23.693593,-193
2022-07-12 14:25:23.694987,-144
2022-07-12 14:25:23.696401,-118
2022-07-12 14:25:23.697787,-116
2022-07-12 14:25:23.699390,-132
2022-07-12 14:25:23.700921,-179
2022-07-12 14:25:23.702371,-181
2022-07-12 14:25:23.703793,-123
2022-07-12 14:25:23.705398,-86
2022-07-12 14:25:23.706877,-79
2022-07-12 14:25:23.708349,-74
2022-07-12 14:25:23.709806,-72
2022-07-12 14:25:23.711262,-67
2022-07-12 14:25:23.712708,-48
2022-07-12 14:25:23.715231,-23
2022-07-12 14:25:23.717335,0
2022-07-12 14:25:23.718994,-4
2022-07-12 14:25:23.720549,-32
2022-07-12 14:25:23.722092,-37
2022-07-12 14:25:23.723614,-13
2022-07-12 14:25:23.725063,4
2022-07-12 14:25:23.904111,13
2022-07-12 14:25:23.905819,16
2022-07-12 14:25:23.907266,13
2022-07-12 14:25:23.908707,9
2022-07-12 14:25:23.910113,-27
2022-07-12 14:25:23.911526,-74
2022-07-12 14:25:23.912937,-86
2022-07-12 14:25:23.914361,-95
2022-07-12 14:25:23.915808,-109
2022-07-12 14:25:23.918070,-93
2022-07-12 14:25:23.919892,-62
2022-07-12 14:25:23.921460,-44
2022-07-12 14:25:23.922896,-51
2022-07-12 14:25:23.924329,-74
2022-07-12 14:25:23.925812,-74
2022-07-12 14:25:23.927263,-53
2022-07-12 14:25:23.928682,-44
2022-07-12 14:25:23.930281,-30
2022-07-12 14:25:23.931749,-13
2022-07-12 14:25:23.933238,0
2022-07-12 14:25:23.934699,30
2022-07-12 14:25:23.936155,72
2022-07-12 14:25:23.937574,95
2022-07-12 14:25:23.939091,95
2022-07-12 14:25:23.941830,86
2022-07-12 14:25:23.944019,88
2022-07-12 14:25:23.945579,93
2022-07-12 14:25:23.947042,55
2022-07-12 14:25:23.948499,13
2022-07-12 14:25:23.950416,20
2022-07-12 14:25:24.129105,39
2022-07-12 14:25:24.130803,39
2022-07-12 14:25:24.132250,51
2022-07-12 14:25:24.133662,65
2022-07-12 14:25:24.135108,72
2022-07-12 14:25:24.136510,72
2022-07-12 14:25:24.137906,11
2022-07-12 14:25:24.139333,-51
2022-07-12 14:25:24.140753,48
2022-07-12 14:25:24.142461,456
2022-07-12 14:25:24.144041,1175
2022-07-12 14:25:24.145524,1426
2022-07-12 14:25:24.146955,580
2022-07-12 14:25:24.148365,-172
2022-07-12 14:25:24.149792,32
2022-07-12 14:25:24.151237,167
2022-07-12 14:25:24.152676,-86
2022-07-12 14:25:24.154280,-90
2022-07-12 14:25:24.155801,13
2022-07-12 14:25:24.157270,-25
2022-07-12 14:25:24.158731,-27
2022-07-12 14:25:24.160196,20
2022-07-12 14:25:24.161905,27
2022-07-12 14:25:24.163379,20
2022-07-12 14:25:24.165166,9
2022-07-12 14:25:24.166895,-6
2022-07-12 14:25:24.168957,6
2022-07-12 14:25:24.170876,27
2022-07-12 14:25:24.172308,32
2022-07-12 14:25:24.173890,27
2022-07-12 14:25:24.354208,13
2022-07-12 14:25:24.355935,20
2022-07-12 14:25:24.357421,41
2022-07-12 14:25:24.358857,44
2022-07-12 14:25:24.360254,41
2022-07-12 14:25:24.361656,23
2022-07-12 14:25:24.363048,-6
2022-07-12 14:25:24.364480,0
2022-07-12 14:25:24.365948,27
2022-07-12 14:25:24.367833,16
2022-07-12 14:25:24.369386,-41
2022-07-12 14:25:24.370890,-137
2022-07-12 14:25:24.372323,-188
2022-07-12 14:25:24.373749,-177
2022-07-12 14:25:24.375192,-172
2022-07-12 14:25:24.376631,-172
2022-07-12 14:25:24.378052,-158
2022-07-12 14:25:24.379586,-156
2022-07-12 14:25:24.381034,-160
2022-07-12 14:25:24.382489,-153
2022-07-12 14:25:24.383906,-146
2022-07-12 14:25:24.385347,-160
2022-07-12 14:25:24.386784,-165
2022-07-12 14:25:24.388362,-160
2022-07-12 14:25:24.390165,-149
2022-07-12 14:25:24.392491,-121
2022-07-12 14:25:24.394410,-102
2022-07-12 14:25:24.395905,-97
2022-07-12 14:25:24.397336,-88
2022-07-12 14:25:24.398764,-72
2022-07-12 14:25:24.669135,-55
2022-07-12 14:25:24.670838,-55
2022-07-12 14:25:24.672402,-81
2022-07-12 14:25:24.673799,-93
2022-07-12 14:25:24.675130,-95
2022-07-12 14:25:24.676481,-121
2022-07-12 14:25:24.677823,-116
2022-07-12 14:25:24.679194,-76
2022-07-12 14:25:24.680585,-55
2022-07-12 14:25:24.681991,-60
2022-07-12 14:25:24.683461,-76
2022-07-12 14:25:24.684844,-93
2022-07-12 14:25:24.686204,-83
2022-07-12 14:25:24.687636,-48
2022-07-12 14:25:24.689010,-30
2022-07-12 14:25:24.690519,-32
2022-07-12 14:25:24.691904,-32
2022-07-12 14:25:24.693500,-25
2022-07-12 14:25:24.694900,-2
2022-07-12 14:25:24.696325,27
2022-07-12 14:25:24.697723,39
2022-07-12 14:25:24.699269,39
2022-07-12 14:25:24.700705,37
2022-07-12 14:25:24.702100,44
2022-07-12 14:25:24.703482,67
2022-07-12 14:25:24.706283,90
2022-07-12 14:25:24.708469,102
2022-07-12 14:25:24.710302,100
2022-07-12 14:25:24.711689,88
2022-07-12 14:25:24.713035,93
2022-07-12 14:25:24.804197,111
2022-07-12 14:25:24.805916,121
2022-07-12 14:25:24.807312,123
2022-07-12 14:25:24.808669,109
2022-07-12 14:25:24.810018,97
2022-07-12 14:25:24.811365,125
2022-07-12 14:25:24.812713,170
2022-07-12 14:25:24.814163,179
2022-07-12 14:25:24.815548,163
2022-07-12 14:25:24.817110,144
2022-07-12 14:25:24.818688,104
2022-07-12 14:25:24.820162,74
2022-07-12 14:25:24.821604,86
2022-07-12 14:25:24.823139,104
2022-07-12 14:25:24.825053,104
2022-07-12 14:25:24.827197,81
2022-07-12 14:25:24.829578,27
2022-07-12 14:25:24.831917,16
2022-07-12 14:25:24.833755,53
2022-07-12 14:25:24.835513,69
2022-07-12 14:25:24.836911,32
2022-07-12 14:25:24.838256,-55
2022-07-12 14:25:24.840992,-83
2022-07-12 14:25:24.843226,221
2022-07-12 14:25:24.844965,1028
2022-07-12 14:25:24.846397,1681
2022-07-12 14:25:24.847770,1112
2022-07-12 14:25:24.849157,58
2022-07-12 14:25:24.851315,-44
2022-07-12 14:25:24.853714,186
2022-07-12 14:25:25.118498,-16
2022-07-12 14:25:25.120218,-104
2022-07-12 14:25:25.121669,11
2022-07-12 14:25:25.123027,-48
2022-07-12 14:25:25.124363,-137
2022-07-12 14:25:25.125697,-93
2022-07-12 14:25:25.127029,-88
2022-07-12 14:25:25.128380,-118
2022-07-12 14:25:25.129775,-114
2022-07-12 14:25:25.131276,-156
2022-07-12 14:25:25.132834,-195
2022-07-12 14:25:25.134240,-149
2022-07-12 14:25:25.135615,-107
2022-07-12 14:25:25.136985,-97
2022-07-12 14:25:25.138344,-83
2022-07-12 14:25:25.139713,-90
2022-07-12 14:25:25.141069,-93
2022-07-12 14:25:25.142596,-67
2022-07-12 14:25:25.143997,-37
2022-07-12 14:25:25.145415,-18
2022-07-12 14:25:25.146815,-16
2022-07-12 14:25:25.148193,-25
2022-07-12 14:25:25.149648,-25
2022-07-12 14:25:25.151024,-4
2022-07-12 14:25:25.152418,9
2022-07-12 14:25:25.155180,-11
2022-07-12 14:25:25.157364,-37
2022-07-12 14:25:25.159213,-67
2022-07-12 14:25:25.160601,-86
2022-07-12 14:25:25.161977,-62
2022-07-12 14:25:25.343634,-32
2022-07-12 14:25:25.346059,-25
2022-07-12 14:25:25.348072,-44
2022-07-12 14:25:25.349736,-74
2022-07-12 14:25:25.351394,-79
2022-07-12 14:25:25.353059,-65
2022-07-12 14:25:25.354714,-60
2022-07-12 14:25:25.356194,-81
2022-07-12 14:25:25.357876,-153
2022-07-12 14:25:25.359262,-209
2022-07-12 14:25:25.360698,-181
2022-07-12 14:25:25.362165,-142
2022-07-12 14:25:25.363577,-128
2022-07-12 14:25:25.364938,-121
2022-07-12 14:25:25.366396,-142
2022-07-12 14:25:25.367848,-177
2022-07-12 14:25:25.369357,-160
2022-07-12 14:25:25.370815,-111
2022-07-12 14:25:25.372270,-93
2022-07-12 14:25:25.373746,-86
2022-07-12 14:25:25.375208,-95
2022-07-12 14:25:25.376645,-151
2022-07-12 14:25:25.378147,-193
2022-07-12 14:25:25.380503,-170
2022-07-12 14:25:25.382063,-130
2022-07-12 14:25:25.383654,-116
2022-07-12 14:25:25.385130,-123
2022-07-12 14:25:25.386480,-121
2022-07-12 14:25:25.387812,-95
2022-07-12 14:25:25.389151,-69
2022-07-12 14:25:25.524182,-44
2022-07-12 14:25:25.525940,-30
2022-07-12 14:25:25.527546,-34
2022-07-12 14:25:25.528972,-34
2022-07-12 14:25:25.530422,-18
2022-07-12 14:25:25.531839,11
2022-07-12 14:25:25.533298,30
2022-07-12 14:25:25.534768,20
2022-07-12 14:25:25.536215,-16
2022-07-12 14:25:25.537886,-48
2022-07-12 14:25:25.539352,-62
2022-07-12 14:25:25.540784,-55
2022-07-12 14:25:25.542209,-34
2022-07-12 14:25:25.543672,-41
2022-07-12 14:25:25.545139,-81
2022-07-12 14:25:25.546590,-90
2022-07-12 14:25:25.548061,-62
2022-07-12 14:25:25.549753,-44
2022-07-12 14:25:25.551262,-16
2022-07-12 14:25:25.552668,18
2022-07-12 14:25:25.554074,34
2022-07-12 14:25:25.555549,58
2022-07-12 14:25:25.556996,69
2022-07-12 14:25:25.558773,72
2022-07-12 14:25:25.562020,88
2022-07-12 14:25:25.564377,93
2022-07-12 14:25:25.566473,72
2022-07-12 14:25:25.568918,58
2022-07-12 14:25:25.571063,69
2022-07-12 14:25:25.572580,93
2022-07-12 14:25:25.749166,104
2022-07-12 14:25:25.750893,107
2022-07-12 14:25:25.752330,107
2022-07-12 14:25:25.753741,100
2022-07-12 14:25:25.755140,95
2022-07-12 14:25:25.756540,69
2022-07-12 14:25:25.757939,2
2022-07-12 14:25:25.759398,-41
2022-07-12 14:25:25.760849,165
2022-07-12 14:25:25.762598,913
2022-07-12 14:25:25.764126,1688
2022-07-12 14:25:25.765622,1289
2022-07-12 14:25:25.767077,130
2022-07-12 14:25:25.768497,-188
2022-07-12 14:25:25.770044,65
2022-07-12 14:25:25.771505,-76
2022-07-12 14:25:25.772914,-207
2022-07-12 14:25:25.774471,-60
2022-07-12 14:25:25.775956,-46
2022-07-12 14:25:25.777401,-114
2022-07-12 14:25:25.778841,-72
2022-07-12 14:25:25.780310,-39
2022-07-12 14:25:25.781794,-46
2022-07-12 14:25:25.783257,-18
2022-07-12 14:25:25.785048,-6
2022-07-12 14:25:25.787494,-37
2022-07-12 14:25:25.789774,-60
2022-07-12 14:25:25.791366,-88
2022-07-12 14:25:25.792819,-128
2022-07-12 14:25:25.794225,-118
2022-07-12 14:25:25.974162,-88
2022-07-12 14:25:25.975956,-93
2022-07-12 14:25:25.977388,-111
2022-07-12 14:25:25.978808,-118
2022-07-12 14:25:25.980230,-83
2022-07-12 14:25:25.981638,-27
2022-07-12 14:25:25.983082,-53
2022-07-12 14:25:25.984521,-102
2022-07-12 14:25:25.985961,-65
2022-07-12 14:25:25.988114,-39
2022-07-12 14:25:25.989630,-60
2022-07-12 14:25:25.991079,-88
2022-07-12 14:25:25.992501,-153
2022-07-12 14:25:25.993922,-212
2022-07-12 14:25:25.995514,-235
2022-07-12 14:25:25.996943,-244
2022-07-12 14:25:25.998417,-228
2022-07-12 14:25:26.000003,-212
2022-07-12 14:25:26.001486,-219
2022-07-12 14:25:26.002979,-219
2022-07-12 14:25:26.004460,-207
2022-07-12 14:25:26.005917,-202
2022-07-12 14:25:26.007394,-200
2022-07-12 14:25:26.008879,-186
2022-07-12 14:25:26.011775,-174
2022-07-12 14:25:26.014085,-163
2022-07-12 14:25:26.015613,-142
2022-07-12 14:25:26.017039,-139
2022-07-12 14:25:26.018575,-130
2022-07-12 14:25:26.020186,-109
2022-07-12 14:25:26.246213,-107
2022-07-12 14:25:26.248738,-88
2022-07-12 14:25:26.250862,-62
2022-07-12 14:25:26.253126,-60
2022-07-12 14:25:26.255087,-51
2022-07-12 14:25:26.262498,-60
2022-07-12 14:25:26.264703,-86
2022-07-12 14:25:26.267161,-72
2022-07-12 14:25:26.269518,-44
2022-07-12 14:25:26.273462,-34
2022-07-12 14:25:26.276176,-34
2022-07-12 14:25:26.278342,-44
2022-07-12 14:25:26.285169,-60
2022-07-12 14:25:26.287687,-48
2022-07-12 14:25:26.290821,-16
2022-07-12 14:25:26.293717,-25
2022-07-12 14:25:26.295359,-65
2022-07-12 14:25:26.296812,-76
2022-07-12 14:25:26.298638,-62
2022-07-12 14:25:26.301066,-37
2022-07-12 14:25:26.303510,-16
2022-07-12 14:25:26.306223,-11
2022-07-12 14:25:26.308565,0
2022-07-12 14:25:26.310901,9
2022-07-12 14:25:26.312907,18
2022-07-12 14:25:26.314359,44
2022-07-12 14:25:26.315775,60
2022-07-12 14:25:26.317190,65
2022-07-12 14:25:26.318548,72
2022-07-12 14:25:26.319910,79
2022-07-12 14:25:26.424090,97
2022-07-12 14:25:26.425817,114
2022-07-12 14:25:26.427224,100
2022-07-12 14:25:26.428686,44
2022-07-12 14:25:26.430269,-9
2022-07-12 14:25:26.431651,-25
2022-07-12 14:25:26.433063,-25
2022-07-12 14:25:26.434418,-4
2022-07-12 14:25:26.435859,30
2022-07-12 14:25:26.437320,46
2022-07-12 14:25:26.438691,60
2022-07-12 14:25:26.440134,79
2022-07-12 14:25:26.441532,86
2022-07-12 14:25:26.442930,97
2022-07-12 14:25:26.444304,109
2022-07-12 14:25:26.445665,114
2022-07-12 14:25:26.447029,81
2022-07-12 14:25:26.448462,20
2022-07-12 14:25:26.450015,-13
2022-07-12 14:25:26.451446,-6
2022-07-12 14:25:26.452831,11
2022-07-12 14:25:26.454208,18
2022-07-12 14:25:26.455564,9
2022-07-12 14:25:26.456922,16
2022-07-12 14:25:26.458273,46
2022-07-12 14:25:26.461084,51
2022-07-12 14:25:26.463221,9
2022-07-12 14:25:26.464878,-30
2022-07-12 14:25:26.466277,100
2022-07-12 14:25:26.467671,671
2022-07-12 14:25:26.784175,1508
2022-07-12 14:25:26.785891,1517
2022-07-12 14:25:26.787267,477
2022-07-12 14:25:26.788616,-81
2022-07-12 14:25:26.789955,144
2022-07-12 14:25:26.791293,72
2022-07-12 14:25:26.792631,-135
2022-07-12 14:25:26.793968,-30
2022-07-12 14:25:26.795526,27
2022-07-12 14:25:26.797012,-53
2022-07-12 14:25:26.798477,-76
2022-07-12 14:25:26.799918,-51
2022-07-12 14:25:26.801345,-48
2022-07-12 14:25:26.802764,-65
2022-07-12 14:25:26.804179,-58
2022-07-12 14:25:26.805600,-62
2022-07-12 14:25:26.806991,-79
2022-07-12 14:25:26.808483,-55
2022-07-12 14:25:26.809944,-23
2022-07-12 14:25:26.811325,-16
2022-07-12 14:25:26.812697,-39
2022-07-12 14:25:26.814066,-72
2022-07-12 14:25:26.815479,-72
2022-07-12 14:25:26.816844,-44
2022-07-12 14:25:26.818240,-16
2022-07-12 14:25:26.820198,6
2022-07-12 14:25:26.821841,11
2022-07-12 14:25:26.823845,-2
2022-07-12 14:25:26.825588,-23
2022-07-12 14:25:26.827042,-32
2022-07-12 14:25:26.919082,-32
2022-07-12 14:25:26.920883,-53
2022-07-12 14:25:26.922432,-93
2022-07-12 14:25:26.923856,-149
2022-07-12 14:25:26.925287,-170
2022-07-12 14:25:26.926717,-109
2022-07-12 14:25:26.928125,-55
2022-07-12 14:25:26.929569,-58
2022-07-12 14:25:26.931021,-90
2022-07-12 14:25:26.932644,-158
2022-07-12 14:25:26.934064,-207
2022-07-12 14:25:26.935488,-188
2022-07-12 14:25:26.936930,-158
2022-07-12 14:25:26.938368,-146
2022-07-12 14:25:26.939823,-139
2022-07-12 14:25:26.941180,-139
2022-07-12 14:25:26.942565,-137
2022-07-12 14:25:26.944112,-104
2022-07-12 14:25:26.945574,-55
2022-07-12 14:25:26.946917,-23
2022-07-12 14:25:26.948256,9
2022-07-12 14:25:26.949696,11
2022-07-12 14:25:26.951034,-20
2022-07-12 14:25:26.952374,-32
2022-07-12 14:25:26.953747,-2
2022-07-12 14:25:26.955717,20
2022-07-12 14:25:26.957288,11
2022-07-12 14:25:26.958948,-30
2022-07-12 14:25:26.960410,-34
2022-07-12 14:25:26.961843,-2
2022-07-12 14:25:27.144189,9
2022-07-12 14:25:27.145955,23
2022-07-12 14:25:27.147398,37
2022-07-12 14:25:27.148820,6
2022-07-12 14:25:27.150224,-6
2022-07-12 14:25:27.151651,39
2022-07-12 14:25:27.153060,86
2022-07-12 14:25:27.154499,90
2022-07-12 14:25:27.155944,60
2022-07-12 14:25:27.157688,18
2022-07-12 14:25:27.159138,13
2022-07-12 14:25:27.160575,41
2022-07-12 14:25:27.162003,55
2022-07-12 14:25:27.163430,44
2022-07-12 14:25:27.164885,-2
2022-07-12 14:25:27.166349,-55
2022-07-12 14:25:27.167832,-37
2022-07-12 14:25:27.169484,25
2022-07-12 14:25:27.171026,55
2022-07-12 14:25:27.172472,83
2022-07-12 14:25:27.173908,104
2022-07-12 14:25:27.175384,93
2022-07-12 14:25:27.176894,93
2022-07-12 14:25:27.178373,104
2022-07-12 14:25:27.180174,88
2022-07-12 14:25:27.181990,60
2022-07-12 14:25:27.184855,48
2022-07-12 14:25:27.186398,60
2022-07-12 14:25:27.187827,88
2022-07-12 14:25:27.189249,135
2022-07-12 14:25:27.457768,160
2022-07-12 14:25:27.459524,121
2022-07-12 14:25:27.460977,74
2022-07-12 14:25:27.462387,88
2022-07-12 14:25:27.463787,123
2022-07-12 14:25:27.465187,137
2022-07-12 14:25:27.466627,142
2022-07-12 14:25:27.468058,130
2022-07-12 14:25:27.469464,90
2022-07-12 14:25:27.471103,67
2022-07-12 14:25:27.472586,93
2022-07-12 14:25:27.474035,121
2022-07-12 14:25:27.475428,128
2022-07-12 14:25:27.476830,114
2022-07-12 14:25:27.478254,39
2022-07-12 14:25:27.479670,-67
2022-07-12 14:25:27.481170,-81
2022-07-12 14:25:27.482802,184
2022-07-12 14:25:27.484288,851
2022-07-12 14:25:27.486144,1363
2022-07-12 14:25:27.487636,841
2022-07-12 14:25:27.489169,-65
2022-07-12 14:25:27.490619,-100
2022-07-12 14:25:27.492025,174
2022-07-12 14:25:27.494508,6
2022-07-12 14:25:27.496647,-104
2022-07-12 14:25:27.498313,-37
2022-07-12 14:25:27.500142,-95
2022-07-12 14:25:27.502027,-132
2022-07-12 14:25:27.503727,-69
2022-07-12 14:25:27.639166,-48
2022-07-12 14:25:27.640917,-60
2022-07-12 14:25:27.642436,-48
2022-07-12 14:25:27.643853,-34
2022-07-12 14:25:27.645258,-20
2022-07-12 14:25:27.646666,4
2022-07-12 14:25:27.648065,32
2022-07-12 14:25:27.649620,41
2022-07-12 14:25:27.651086,48
2022-07-12 14:25:27.652814,60
2022-07-12 14:25:27.654287,72
2022-07-12 14:25:27.655715,90
2022-07-12 14:25:27.657146,72
2022-07-12 14:25:27.658572,6
2022-07-12 14:25:27.660020,-25
2022-07-12 14:25:27.661473,-37
2022-07-12 14:25:27.662968,-53
2022-07-12 14:25:27.664653,-51
2022-07-12 14:25:27.666112,-60
2022-07-12 14:25:27.667652,-102
2022-07-12 14:25:27.669065,-116
2022-07-12 14:25:27.670461,-95
2022-07-12 14:25:27.671997,-74
2022-07-12 14:25:27.673476,-55
2022-07-12 14:25:27.676133,-37
2022-07-12 14:25:27.678384,-39
2022-07-12 14:25:27.680329,-46
2022-07-12 14:25:27.681930,-60
2022-07-12 14:25:27.683390,-97
2022-07-12 14:25:27.685229,-128
2022-07-12 14:25:27.863571,-125
2022-07-12 14:25:27.865930,-116
2022-07-12 14:25:27.868017,-111
2022-07-12 14:25:27.869428,-104
2022-07-12 14:25:27.870771,-88
2022-07-12 14:25:27.872105,-69
2022-07-12 14:25:27.873452,-93
2022-07-12 14:25:27.874824,-121
2022-07-12 14:25:27.876173,-102
2022-07-12 14:25:27.877860,-76
2022-07-12 14:25:27.879275,-65
2022-07-12 14:25:27.880684,-46
2022-07-12 14:25:27.882066,-30
2022-07-12 14:25:27.883577,-18
2022-07-12 14:25:27.885052,-4
2022-07-12 14:25:27.886433,6
2022-07-12 14:25:27.887831,18
2022-07-12 14:25:27.889377,25
2022-07-12 14:25:27.890759,4
2022-07-12 14:25:27.892121,-18
2022-07-12 14:25:27.893475,-23
2022-07-12 14:25:27.894895,-65
2022-07-12 14:25:27.896255,-100
2022-07-12 14:25:27.897656,-72
2022-07-12 14:25:27.900255,-55
2022-07-12 14:25:27.902596,-58
2022-07-12 14:25:27.904085,-34
2022-07-12 14:25:27.905478,-20
2022-07-12 14:25:27.906809,-9
2022-07-12 14:25:27.908366,9
2022-07-12 14:25:28.089074,0
2022-07-12 14:25:28.090849,-16
2022-07-12 14:25:28.092233,-4
2022-07-12 14:25:28.093589,11
2022-07-12 14:25:28.094933,16
2022-07-12 14:25:28.096275,13
2022-07-12 14:25:28.097610,11
2022-07-12 14:25:28.099024,20
2022-07-12 14:25:28.100499,41
2022-07-12 14:25:28.102030,51
2022-07-12 14:25:28.103675,48
2022-07-12 14:25:28.105060,37
2022-07-12 14:25:28.106410,9
2022-07-12 14:25:28.107753,13
2022-07-12 14:25:28.109147,34
2022-07-12 14:25:28.110555,18
2022-07-12 14:25:28.111926,13
2022-07-12 14:25:28.113497,23
2022-07-12 14:25:28.114975,23
2022-07-12 14:25:28.116499,51
2022-07-12 14:25:28.117928,81
2022-07-12 14:25:28.119343,60
2022-07-12 14:25:28.120792,23
2022-07-12 14:25:28.122229,6
2022-07-12 14:25:28.123622,18
2022-07-12 14:25:28.125614,34
2022-07-12 14:25:28.127739,44
2022-07-12 14:25:28.129645,37
2022-07-12 14:25:28.131089,20
2022-07-12 14:25:28.132461,27
2022-07-12 14:25:28.314110,44
2022-07-12 14:25:28.315835,51
2022-07-12 14:25:28.317220,39
2022-07-12 14:25:28.318581,0
2022-07-12 14:25:28.319965,-20
2022-07-12 14:25:28.321319,-41
2022-07-12 14:25:28.322658,-100
2022-07-12 14:25:28.324012,-123
2022-07-12 14:25:28.325488,-34
2022-07-12 14:25:28.327130,382
2022-07-12 14:25:28.328697,1207
2022-07-12 14:25:28.330377,1517
2022-07-12 14:25:28.331982,620
2022-07-12 14:25:28.333575,-193
2022-07-12 14:25:28.335202,-30
2022-07-12 14:25:28.336782,65
2022-07-12 14:25:28.339183,-228
2022-07-12 14:25:28.340896,-258
2022-07-12 14:25:28.342282,-139
2022-07-12 14:25:28.343630,-170
2022-07-12 14:25:28.345164,-174
2022-07-12 14:25:28.346540,-130
2022-07-12 14:25:28.347937,-137
2022-07-12 14:25:28.349534,-142
2022-07-12 14:25:28.352179,-107
2022-07-12 14:25:28.354352,-76
2022-07-12 14:25:28.355802,-109
2022-07-12 14:25:28.357191,-181
2022-07-12 14:25:28.358607,-181
2022-07-12 14:25:28.359981,-167
2022-07-12 14:25:28.494080,-202
2022-07-12 14:25:28.495806,-202
2022-07-12 14:25:28.497329,-170
2022-07-12 14:25:28.498805,-137
2022-07-12 14:25:28.500187,-125
2022-07-12 14:25:28.501853,-158
2022-07-12 14:25:28.503279,-163
2022-07-12 14:25:28.504707,-123
2022-07-12 14:25:28.506143,-130
2022-07-12 14:25:28.507711,-195
2022-07-12 14:25:28.509216,-237
2022-07-12 14:25:28.510628,-221
2022-07-12 14:25:28.512006,-193
2022-07-12 14:25:28.513381,-167
2022-07-12 14:25:28.514817,-137
2022-07-12 14:25:28.516371,-146
2022-07-12 14:25:28.517806,-170
2022-07-12 14:25:28.519381,-156
2022-07-12 14:25:28.520854,-125
2022-07-12 14:25:28.522276,-102
2022-07-12 14:25:28.523675,-102
2022-07-12 14:25:28.525110,-116
2022-07-12 14:25:28.526639,-128
2022-07-12 14:25:28.528143,-125
2022-07-12 14:25:28.530829,-88
2022-07-12 14:25:28.532391,-65
2022-07-12 14:25:28.534395,-55
2022-07-12 14:25:28.536501,-53
2022-07-12 14:25:28.539025,-58
2022-07-12 14:25:28.540645,-32
2022-07-12 14:25:28.809198,-2
2022-07-12 14:25:28.811018,13
2022-07-12 14:25:28.812498,25
2022-07-12 14:25:28.813924,-11
2022-07-12 14:25:28.815411,-48
2022-07-12 14:25:28.816822,-30
2022-07-12 14:25:28.818230,-27
2022-07-12 14:25:28.819664,-44
2022-07-12 14:25:28.821202,-53
2022-07-12 14:25:28.823047,-76
2022-07-12 14:25:28.824551,-102
2022-07-12 14:25:28.825986,-81
2022-07-12 14:25:28.827464,-34
2022-07-12 14:25:28.829006,-18
2022-07-12 14:25:28.830706,-9
2022-07-12 14:25:28.832990,16
2022-07-12 14:25:28.835456,39
2022-07-12 14:25:28.837840,58
2022-07-12 14:25:28.840140,53
2022-07-12 14:25:28.842045,69
2022-07-12 14:25:28.843582,95
2022-07-12 14:25:28.845578,53
2022-07-12 14:25:28.847780,37
2022-07-12 14:25:28.849863,93
2022-07-12 14:25:28.851382,111
2022-07-12 14:25:28.853051,121
2022-07-12 14:25:28.855453,135
2022-07-12 14:25:28.857400,121
2022-07-12 14:25:28.859030,128
2022-07-12 14:25:28.860516,167
2022-07-12 14:25:29.034089,191
2022-07-12 14:25:29.035795,123
2022-07-12 14:25:29.037317,11
2022-07-12 14:25:29.038766,-4
2022-07-12 14:25:29.040200,23
2022-07-12 14:25:29.041628,37
2022-07-12 14:25:29.043086,60
2022-07-12 14:25:29.044536,67
2022-07-12 14:25:29.045994,55
2022-07-12 14:25:29.047878,23
2022-07-12 14:25:29.049583,18
2022-07-12 14:25:29.051024,58
2022-07-12 14:25:29.052437,74
2022-07-12 14:25:29.053845,74
2022-07-12 14:25:29.055354,55
2022-07-12 14:25:29.056823,0
2022-07-12 14:25:29.058286,0
2022-07-12 14:25:29.059895,39
2022-07-12 14:25:29.061528,58
2022-07-12 14:25:29.063099,88
2022-07-12 14:25:29.064605,86
2022-07-12 14:25:29.066102,58
2022-07-12 14:25:29.067631,46
2022-07-12 14:25:29.069071,60
2022-07-12 14:25:29.071721,90
2022-07-12 14:25:29.073824,72
2022-07-12 14:25:29.075652,11
2022-07-12 14:25:29.077130,-25
2022-07-12 14:25:29.078550,-20
2022-07-12 14:25:29.079957,11
2022-07-12 14:25:29.348777,25
2022-07-12 14:25:29.350514,25
2022-07-12 14:25:29.351903,27
2022-07-12 14:25:29.353257,6
2022-07-12 14:25:29.354638,9
2022-07-12 14:25:29.355992,-9
2022-07-12 14:25:29.357331,-62
2022-07-12 14:25:29.358689,2
2022-07-12 14:25:29.360129,412
2022-07-12 14:25:29.361608,1270
2022-07-12 14:25:29.363077,1657
2022-07-12 14:25:29.364490,725
2022-07-12 14:25:29.365923,-205
2022-07-12 14:25:29.367322,-100
2022-07-12 14:25:29.368731,-34
2022-07-12 14:25:29.370115,-340
2022-07-12 14:25:29.371515,-347
2022-07-12 14:25:29.373034,-212
2022-07-12 14:25:29.374420,-256
2022-07-12 14:25:29.375782,-307
2022-07-12 14:25:29.377181,-286
2022-07-12 14:25:29.378556,-293
2022-07-12 14:25:29.379916,-277
2022-07-12 14:25:29.381270,-228
2022-07-12 14:25:29.382694,-212
2022-07-12 14:25:29.385350,-205
2022-07-12 14:25:29.387637,-195
2022-07-12 14:25:29.389700,-186
2022-07-12 14:25:29.391159,-151
2022-07-12 14:25:29.392588,-128
2022-07-12 14:25:29.482795,-104
2022-07-12 14:25:29.484551,-90
2022-07-12 14:25:29.485982,-97
2022-07-12 14:25:29.487355,-83
2022-07-12 14:25:29.488713,-67
2022-07-12 14:25:29.490061,-51
2022-07-12 14:25:29.491792,-48
2022-07-12 14:25:29.493226,-100
2022-07-12 14:25:29.494603,-125
2022-07-12 14:25:29.496093,-107
2022-07-12 14:25:29.497553,-95
2022-07-12 14:25:29.498943,-76
2022-07-12 14:25:29.500283,-76
2022-07-12 14:25:29.501681,-81
2022-07-12 14:25:29.503187,-60
2022-07-12 14:25:29.504684,-39
2022-07-12 14:25:29.506083,-16
2022-07-12 14:25:29.507663,0
2022-07-12 14:25:29.509181,-4
2022-07-12 14:25:29.510616,-37
2022-07-12 14:25:29.512031,-65
2022-07-12 14:25:29.513500,-51
2022-07-12 14:25:29.514998,-39
2022-07-12 14:25:29.516438,-32
2022-07-12 14:25:29.518490,-18
2022-07-12 14:25:29.520203,-32
2022-07-12 14:25:29.522275,-30
2022-07-12 14:25:29.523970,-6
2022-07-12 14:25:29.525408,2
2022-07-12 14:25:29.526780,23
2022-07-12 14:25:29.664126,23
2022-07-12 14:25:29.666009,9
2022-07-12 14:25:29.667483,23
2022-07-12 14:25:29.668885,27
2022-07-12 14:25:29.670303,39
2022-07-12 14:25:29.671680,51
2022-07-12 14:25:29.673048,30
2022-07-12 14:25:29.674454,2
2022-07-12 14:25:29.675914,4
2022-07-12 14:25:29.677646,25
2022-07-12 14:25:29.679068,37
2022-07-12 14:25:29.680446,34
2022-07-12 14:25:29.681844,23
2022-07-12 14:25:29.683274,-9
2022-07-12 14:25:29.684675,-25
2022-07-12 14:25:29.686089,-34
2022-07-12 14:25:29.687514,-48
2022-07-12 14:25:29.689034,-20
2022-07-12 14:25:29.690467,-9
2022-07-12 14:25:29.691858,-16
2022-07-12 14:25:29.693284,6
2022-07-12 14:25:29.694968,16
2022-07-12 14:25:29.696483,23
2022-07-12 14:25:29.697893,41
2022-07-12 14:25:29.699628,39
2022-07-12 14:25:29.701369,48
2022-07-12 14:25:29.703526,65
2022-07-12 14:25:29.704994,69
2022-07-12 14:25:29.706432,81
2022-07-12 14:25:29.707807,90
2022-07-12 14:25:29.934129,95
2022-07-12 14:25:29.936578,102
2022-07-12 14:25:29.938158,109
2022-07-12 14:25:29.939594,118
2022-07-12 14:25:29.940952,114
2022-07-12 14:25:29.942296,104
2022-07-12 14:25:29.943677,74
2022-07-12 14:25:29.945267,58
2022-07-12 14:25:29.946662,86
2022-07-12 14:25:29.948298,90
2022-07-12 14:25:29.949876,81
2022-07-12 14:25:29.951270,79
2022-07-12 14:25:29.952672,18
2022-07-12 14:25:29.954041,-44
2022-07-12 14:25:29.955528,-58
2022-07-12 14:25:29.956935,-67
2022-07-12 14:25:29.958293,-104
2022-07-12 14:25:29.959901,-160
2022-07-12 14:25:29.961342,-149
2022-07-12 14:25:29.962773,-83
2022-07-12 14:25:29.964170,-58
2022-07-12 14:25:29.965656,-67
2022-07-12 14:25:29.967117,-76
2022-07-12 14:25:29.968519,-67
2022-07-12 14:25:29.970685,-53
2022-07-12 14:25:29.972995,-62
2022-07-12 14:25:29.974909,-55
2022-07-12 14:25:29.976310,-46
2022-07-12 14:25:29.977705,-44
2022-07-12 14:25:29.979071,-30
2022-07-12 14:25:30.114940,-27
2022-07-12 14:25:30.117215,-11
2022-07-12 14:25:30.119088,-16
2022-07-12 14:25:30.120633,-58
2022-07-12 14:25:30.122168,-97
2022-07-12 14:25:30.123715,-174
2022-07-12 14:25:30.125281,-202
2022-07-12 14:25:30.126743,55
2022-07-12 14:25:30.128162,788
2022-07-12 14:25:30.129661,1508
2022-07-12 14:25:30.131069,1088
2022-07-12 14:25:30.132442,-41
2022-07-12 14:25:30.133808,-282
2022-07-12 14:25:30.135288,2
2022-07-12 14:25:30.136665,-160
2022-07-12 14:25:30.138027,-317
2022-07-12 14:25:30.139397,-226
2022-07-12 14:25:30.140883,-244
2022-07-12 14:25:30.142380,-317
2022-07-12 14:25:30.143853,-293
2022-07-12 14:25:30.145311,-261
2022-07-12 14:25:30.146757,-270
2022-07-12 14:25:30.148212,-254
2022-07-12 14:25:30.150542,-228
2022-07-12 14:25:30.152302,-205
2022-07-12 14:25:30.153900,-160
2022-07-12 14:25:30.155270,-135
2022-07-12 14:25:30.156618,-125
2022-07-12 14:25:30.157950,-114
2022-07-12 14:25:30.159284,-102
2022-07-12 14:25:30.339195,-67
2022-07-12 14:25:30.341770,-37
2022-07-12 14:25:30.343613,-23
2022-07-12 14:25:30.345162,-23
2022-07-12 14:25:30.346601,-62
2022-07-12 14:25:30.348028,-79
2022-07-12 14:25:30.349517,-48
2022-07-12 14:25:30.350977,-23
2022-07-12 14:25:30.352433,-11
2022-07-12 14:25:30.354216,-25
2022-07-12 14:25:30.355703,-58
2022-07-12 14:25:30.357126,-62
2022-07-12 14:25:30.358527,-34
2022-07-12 14:25:30.359962,6
2022-07-12 14:25:30.361469,27
2022-07-12 14:25:30.362902,23
2022-07-12 14:25:30.364325,20
2022-07-12 14:25:30.365944,6
2022-07-12 14:25:30.367464,-32
2022-07-12 14:25:30.368979,-69
2022-07-12 14:25:30.370466,-86
2022-07-12 14:25:30.371941,-114
2022-07-12 14:25:30.373401,-149
2022-07-12 14:25:30.376103,-123
2022-07-12 14:25:30.378458,-76
2022-07-12 14:25:30.380031,-62
2022-07-12 14:25:30.381496,-41
2022-07-12 14:25:30.382911,-37
2022-07-12 14:25:30.384434,-51
2022-07-12 14:25:30.387100,-23
2022-07-12 14:25:30.609193,9
2022-07-12 14:25:30.610917,30
2022-07-12 14:25:30.612360,39
2022-07-12 14:25:30.613773,2
2022-07-12 14:25:30.615269,-32
2022-07-12 14:25:30.616759,-18
2022-07-12 14:25:30.618190,20
2022-07-12 14:25:30.619647,44
2022-07-12 14:25:30.621098,39
2022-07-12 14:25:30.622824,18
2022-07-12 14:25:30.624259,-16
2022-07-12 14:25:30.625660,-2
2022-07-12 14:25:30.627056,44
2022-07-12 14:25:30.628456,53
2022-07-12 14:25:30.629883,58
2022-07-12 14:25:30.631330,53
2022-07-12 14:25:30.632799,37
2022-07-12 14:25:30.634478,67
2022-07-12 14:25:30.636034,95
2022-07-12 14:25:30.637449,107
2022-07-12 14:25:30.638857,114
2022-07-12 14:25:30.640297,95
2022-07-12 14:25:30.641745,76
2022-07-12 14:25:30.643160,62
2022-07-12 14:25:30.644716,58
2022-07-12 14:25:30.646886,86
2022-07-12 14:25:30.649112,90
2022-07-12 14:25:30.650799,74
2022-07-12 14:25:30.652858,79
2022-07-12 14:25:30.655247,100
2022-07-12 14:25:30.834174,128
2022-07-12 14:25:30.836688,137
2022-07-12 14:25:30.839827,135
2022-07-12 14:25:30.842134,118
2022-07-12 14:25:30.844528,88
2022-07-12 14:25:30.846168,83
2022-07-12 14:25:30.847642,90
2022-07-12 14:25:30.849412,93
2022-07-12 14:25:30.850870,74
2022-07-12 14:25:30.852289,16
2022-07-12 14:25:30.853785,9
2022-07-12 14:25:30.856331,48
2022-07-12 14:25:30.858039,55
2022-07-12 14:25:30.859673,62
2022-07-12 14:25:30.861436,41
2022-07-12 14:25:30.863010,-11
2022-07-12 14:25:30.864659,-11
2022-07-12 14:25:30.866314,18
2022-07-12 14:25:30.867909,32
2022-07-12 14:25:30.871042,37
2022-07-12 14:25:30.873808,27
2022-07-12 14:25:30.875545,9
2022-07-12 14:25:30.877213,0
2022-07-12 14:25:30.878736,-32
2022-07-12 14:25:30.880263,-123
2022-07-12 14:25:30.881819,-179
2022-07-12 14:25:30.883513,-170
2022-07-12 14:25:30.885179,-188
2022-07-12 14:25:30.887262,-202
2022-07-12 14:25:30.889637,-170
2022-07-12 14:25:31.059138,-142
2022-07-12 14:25:31.060911,-123
2022-07-12 14:25:31.062309,-116
2022-07-12 14:25:31.063668,-121
2022-07-12 14:25:31.065011,-97
2022-07-12 14:25:31.066350,-67
2022-07-12 14:25:31.067809,-51
2022-07-12 14:25:31.069211,-95
2022-07-12 14:25:31.070673,-188
2022-07-12 14:25:31.072225,-151
2022-07-12 14:25:31.073776,244
2022-07-12 14:25:31.075145,1037
2022-07-12 14:25:31.076485,1417
2022-07-12 14:25:31.077827,631
2022-07-12 14:25:31.079168,-209
2022-07-12 14:25:31.080552,-102
2022-07-12 14:25:31.081939,48
2022-07-12 14:25:31.083406,-174
2022-07-12 14:25:31.084837,-195
2022-07-12 14:25:31.086216,-81
2022-07-12 14:25:31.087585,-125
2022-07-12 14:25:31.088956,-167
2022-07-12 14:25:31.090415,-102
2022-07-12 14:25:31.091828,-79
2022-07-12 14:25:31.093223,-100
2022-07-12 14:25:31.095309,-69
2022-07-12 14:25:31.097392,-58
2022-07-12 14:25:31.099315,-93
2022-07-12 14:25:31.100765,-100
2022-07-12 14:25:31.102105,-60
2022-07-12 14:25:31.284097,-23
2022-07-12 14:25:31.285822,-23
2022-07-12 14:25:31.287319,-16
2022-07-12 14:25:31.288737,0
2022-07-12 14:25:31.290096,9
2022-07-12 14:25:31.291445,37
2022-07-12 14:25:31.292802,51
2022-07-12 14:25:31.294176,23
2022-07-12 14:25:31.295621,-2
2022-07-12 14:25:31.297192,-2
2022-07-12 14:25:31.298736,23
2022-07-12 14:25:31.300206,37
2022-07-12 14:25:31.301570,32
2022-07-12 14:25:31.302971,13
2022-07-12 14:25:31.304347,-6
2022-07-12 14:25:31.305736,4
2022-07-12 14:25:31.307125,37
2022-07-12 14:25:31.308780,53
2022-07-12 14:25:31.310187,74
2022-07-12 14:25:31.311609,69
2022-07-12 14:25:31.313030,58
2022-07-12 14:25:31.314447,60
2022-07-12 14:25:31.315897,53
2022-07-12 14:25:31.317282,62
2022-07-12 14:25:31.318706,67
2022-07-12 14:25:31.321504,55
2022-07-12 14:25:31.323704,62
2022-07-12 14:25:31.325538,69
2022-07-12 14:25:31.326925,60
2022-07-12 14:25:31.328271,23
2022-07-12 14:25:31.552683,-23
2022-07-12 14:25:31.554424,-11
2022-07-12 14:25:31.555841,6
2022-07-12 14:25:31.557223,4
2022-07-12 14:25:31.558592,20
2022-07-12 14:25:31.559957,37
2022-07-12 14:25:31.561324,25
2022-07-12 14:25:31.562760,-6
2022-07-12 14:25:31.564149,-6
2022-07-12 14:25:31.565681,16
2022-07-12 14:25:31.567318,20
2022-07-12 14:25:31.568823,32
2022-07-12 14:25:31.570240,20
2022-07-12 14:25:31.571636,-13
2022-07-12 14:25:31.573076,0
2022-07-12 14:25:31.574473,20
2022-07-12 14:25:31.575895,20
2022-07-12 14:25:31.577461,39
2022-07-12 14:25:31.579040,44
2022-07-12 14:25:31.580460,44
2022-07-12 14:25:31.581900,58
2022-07-12 14:25:31.583338,62
2022-07-12 14:25:31.585569,74
2022-07-12 14:25:31.588438,86
2022-07-12 14:25:31.591157,86
2022-07-12 14:25:31.593436,86
2022-07-12 14:25:31.595703,65
2022-07-12 14:25:31.597949,44
2022-07-12 14:25:31.600252,41
2022-07-12 14:25:31.602489,62
2022-07-12 14:25:31.780064,69
2022-07-12 14:25:31.782338,34
2022-07-12 14:25:31.784232,18
2022-07-12 14:25:31.785793,25
2022-07-12 14:25:31.787348,25
2022-07-12 14:25:31.788895,18
2022-07-12 14:25:31.790463,-13
2022-07-12 14:25:31.792015,-20
2022-07-12 14:25:31.793897,9
2022-07-12 14:25:31.795570,9
2022-07-12 14:25:31.797085,11
2022-07-12 14:25:31.798487,-2
2022-07-12 14:25:31.799860,-58
2022-07-12 14:25:31.801235,-83
2022-07-12 14:25:31.802620,-81
2022-07-12 14:25:31.803991,-97
2022-07-12 14:25:31.805490,-123
2022-07-12 14:25:31.806880,-130
2022-07-12 14:25:31.808352,-123
2022-07-12 14:25:31.809728,-121
2022-07-12 14:25:31.811090,-97
2022-07-12 14:25:31.812451,-69
2022-07-12 14:25:31.813824,-51
2022-07-12 14:25:31.816005,-27
2022-07-12 14:25:31.817712,-34
2022-07-12 14:25:31.819248,-41
2022-07-12 14:25:31.821029,-16
2022-07-12 14:25:31.822762,-16
2022-07-12 14:25:31.825245,-32
2022-07-12 14:25:31.827166,-41
2022-07-12 14:25:32.048524,-41
2022-07-12 14:25:32.050248,-16
2022-07-12 14:25:32.051695,-13
2022-07-12 14:25:32.053314,-48
2022-07-12 14:25:32.054741,-72
2022-07-12 14:25:32.056294,-97
2022-07-12 14:25:32.057724,-128
2022-07-12 14:25:32.059216,-146
2022-07-12 14:25:32.060672,-174
2022-07-12 14:25:32.062476,-160
2022-07-12 14:25:32.063987,79
2022-07-12 14:25:32.065448,771
2022-07-12 14:25:32.066856,1433
2022-07-12 14:25:32.068257,1002
2022-07-12 14:25:32.069650,-20
2022-07-12 14:25:32.071077,-195
2022-07-12 14:25:32.072645,48
2022-07-12 14:25:32.074323,-158
2022-07-12 14:25:32.075838,-303
2022-07-12 14:25:32.077283,-149
2022-07-12 14:25:32.078709,-128
2022-07-12 14:25:32.080133,-188
2022-07-12 14:25:32.081568,-144
2022-07-12 14:25:32.082979,-121
2022-07-12 14:25:32.085689,-116
2022-07-12 14:25:32.087262,-72
2022-07-12 14:25:32.089277,-48
2022-07-12 14:25:32.090782,-46
2022-07-12 14:25:32.092306,-48
2022-07-12 14:25:32.093765,-32
2022-07-12 14:25:32.184225,0
2022-07-12 14:25:32.186037,23
2022-07-12 14:25:32.187667,48
2022-07-12 14:25:32.189141,55
2022-07-12 14:25:32.190599,48
2022-07-12 14:25:32.192067,44
2022-07-12 14:25:32.193524,30
2022-07-12 14:25:32.194980,48
2022-07-12 14:25:32.196441,72
2022-07-12 14:25:32.198010,48
2022-07-12 14:25:32.199483,13
2022-07-12 14:25:32.200961,-2
2022-07-12 14:25:32.202396,20
2022-07-12 14:25:32.204101,53
2022-07-12 14:25:32.205731,55
2022-07-12 14:25:32.207203,55
2022-07-12 14:25:32.208628,48
2022-07-12 14:25:32.211000,53
2022-07-12 14:25:32.213026,93
2022-07-12 14:25:32.215931,111
2022-07-12 14:25:32.219037,111
2022-07-12 14:25:32.222215,95
2022-07-12 14:25:32.224236,58
2022-07-12 14:25:32.226857,55
2022-07-12 14:25:32.228412,72
2022-07-12 14:25:32.229852,79
2022-07-12 14:25:32.231283,88
2022-07-12 14:25:32.232800,76
2022-07-12 14:25:32.234473,67
2022-07-12 14:25:32.235934,83
2022-07-12 14:25:32.499124,104
2022-07-12 14:25:32.500933,125
2022-07-12 14:25:32.502604,125
2022-07-12 14:25:32.504455,95
2022-07-12 14:25:32.506006,51
2022-07-12 14:25:32.507566,51
2022-07-12 14:25:32.509137,79
2022-07-12 14:25:32.510722,58
2022-07-12 14:25:32.512355,20
2022-07-12 14:25:32.513939,0
2022-07-12 14:25:32.515447,-39
2022-07-12 14:25:32.517018,-69
2022-07-12 14:25:32.518535,-97
2022-07-12 14:25:32.520131,-100
2022-07-12 14:25:32.521769,-72
2022-07-12 14:25:32.523369,-88
2022-07-12 14:25:32.525035,-97
2022-07-12 14:25:32.526619,-60
2022-07-12 14:25:32.528227,-32
2022-07-12 14:25:32.529780,-13
2022-07-12 14:25:32.531212,-2
2022-07-12 14:25:32.532606,-13
2022-07-12 14:25:32.534108,-11
2022-07-12 14:25:32.536865,11
2022-07-12 14:25:32.538898,34
2022-07-12 14:25:32.540447,23
2022-07-12 14:25:32.541902,-6
2022-07-12 14:25:32.543339,-18
2022-07-12 14:25:32.544856,-18
2022-07-12 14:25:32.546393,0
2022-07-12 14:25:32.679166,23
2022-07-12 14:25:32.680902,32
2022-07-12 14:25:32.682339,37
2022-07-12 14:25:32.683690,16
2022-07-12 14:25:32.685035,11
2022-07-12 14:25:32.686377,39
2022-07-12 14:25:32.687715,55
2022-07-12 14:25:32.689066,69
2022-07-12 14:25:32.690509,74
2022-07-12 14:25:32.691905,39
2022-07-12 14:25:32.693466,16
2022-07-12 14:25:32.694883,16
2022-07-12 14:25:32.696268,9
2022-07-12 14:25:32.697639,-6
2022-07-12 14:25:32.699037,-60
2022-07-12 14:25:32.700473,-125
2022-07-12 14:25:32.701863,-132
2022-07-12 14:25:32.703283,-97
2022-07-12 14:25:32.704790,-81
2022-07-12 14:25:32.706190,-90
2022-07-12 14:25:32.707609,-114
2022-07-12 14:25:32.709218,-158
2022-07-12 14:25:32.710626,-160
2022-07-12 14:25:32.712025,-111
2022-07-12 14:25:32.713379,-86
2022-07-12 14:25:32.715615,-58
2022-07-12 14:25:32.717846,-32
2022-07-12 14:25:32.719372,-62
2022-07-12 14:25:32.721631,-74
2022-07-12 14:25:32.723857,-44
2022-07-12 14:25:32.949092,-18
2022-07-12 14:25:32.950917,-20
2022-07-12 14:25:32.952337,-48
2022-07-12 14:25:32.953698,-60
2022-07-12 14:25:32.955043,-41
2022-07-12 14:25:32.956381,-20
2022-07-12 14:25:32.957719,2
2022-07-12 14:25:32.959083,-2
2022-07-12 14:25:32.960619,-37
2022-07-12 14:25:32.962054,-60
2022-07-12 14:25:32.963598,-76
2022-07-12 14:25:32.965037,-135
2022-07-12 14:25:32.966416,-184
2022-07-12 14:25:32.967767,-9
2022-07-12 14:25:32.969235,627
2022-07-12 14:25:32.970916,1415
2022-07-12 14:25:32.972354,1245
2022-07-12 14:25:32.974116,104
2022-07-12 14:25:32.975632,-361
2022-07-12 14:25:32.977052,-55
2022-07-12 14:25:32.978425,-156
2022-07-12 14:25:32.979801,-380
2022-07-12 14:25:32.981197,-251
2022-07-12 14:25:32.982564,-184
2022-07-12 14:25:32.984105,-226
2022-07-12 14:25:32.986786,-191
2022-07-12 14:25:32.988864,-160
2022-07-12 14:25:32.990724,-167
2022-07-12 14:25:32.992161,-144
2022-07-12 14:25:32.993528,-90
2022-07-12 14:25:33.129085,-65
2022-07-12 14:25:33.130812,-62
2022-07-12 14:25:33.132335,-48
2022-07-12 14:25:33.133766,-39
2022-07-12 14:25:33.135125,-16
2022-07-12 14:25:33.136475,18
2022-07-12 14:25:33.137822,27
2022-07-12 14:25:33.139188,6
2022-07-12 14:25:33.140617,-20
2022-07-12 14:25:33.142091,-2
2022-07-12 14:25:33.143545,65
2022-07-12 14:25:33.144946,95
2022-07-12 14:25:33.146323,90
2022-07-12 14:25:33.147685,81
2022-07-12 14:25:33.149081,60
2022-07-12 14:25:33.150504,67
2022-07-12 14:25:33.151938,88
2022-07-12 14:25:33.153422,100
2022-07-12 14:25:33.154925,104
2022-07-12 14:25:33.156328,83
2022-07-12 14:25:33.157693,72
2022-07-12 14:25:33.159084,88
2022-07-12 14:25:33.160497,109
2022-07-12 14:25:33.161881,123
2022-07-12 14:25:33.163263,121
2022-07-12 14:25:33.165728,111
2022-07-12 14:25:33.167890,104
2022-07-12 14:25:33.169463,97
2022-07-12 14:25:33.171222,100
2022-07-12 14:25:33.173426,114
2022-07-12 14:25:33.354915,121
2022-07-12 14:25:33.357348,116
2022-07-12 14:25:33.359325,116
2022-07-12 14:25:33.360970,125
2022-07-12 14:25:33.362533,132
2022-07-12 14:25:33.364191,142
2022-07-12 14:25:33.365926,128
2022-07-12 14:25:33.367315,88
2022-07-12 14:25:33.369025,81
2022-07-12 14:25:33.370421,102
2022-07-12 14:25:33.371799,104
2022-07-12 14:25:33.373171,111
2022-07-12 14:25:33.374534,97
2022-07-12 14:25:33.375911,62
2022-07-12 14:25:33.377271,58
2022-07-12 14:25:33.378632,41
2022-07-12 14:25:33.379991,13
2022-07-12 14:25:33.381498,25
2022-07-12 14:25:33.383254,44
2022-07-12 14:25:33.384731,46
2022-07-12 14:25:33.386167,53
2022-07-12 14:25:33.387592,46
2022-07-12 14:25:33.389012,-4
2022-07-12 14:25:33.390987,-46
2022-07-12 14:25:33.392662,-55
2022-07-12 14:25:33.394143,-74
2022-07-12 14:25:33.395497,-86
2022-07-12 14:25:33.396834,-69
2022-07-12 14:25:33.398180,-58
2022-07-12 14:25:33.399515,-46
2022-07-12 14:25:33.622756,-39
2022-07-12 14:25:33.624567,-34
2022-07-12 14:25:33.626016,-18
2022-07-12 14:25:33.627474,-13
2022-07-12 14:25:33.628903,-9
2022-07-12 14:25:33.630326,-13
2022-07-12 14:25:33.631784,-46
2022-07-12 14:25:33.633290,-53
2022-07-12 14:25:33.634781,-23
2022-07-12 14:25:33.636583,-16
2022-07-12 14:25:33.638059,-23
2022-07-12 14:25:33.639471,-60
2022-07-12 14:25:33.640876,-111
2022-07-12 14:25:33.642275,-130
2022-07-12 14:25:33.643781,-137
2022-07-12 14:25:33.645204,-149
2022-07-12 14:25:33.646726,-149
2022-07-12 14:25:33.648348,-153
2022-07-12 14:25:33.649898,-170
2022-07-12 14:25:33.651314,-156
2022-07-12 14:25:33.652727,-130
2022-07-12 14:25:33.654138,-130
2022-07-12 14:25:33.655566,-128
2022-07-12 14:25:33.657014,-118
2022-07-12 14:25:33.658736,-121
2022-07-12 14:25:33.660486,-102
2022-07-12 14:25:33.662567,-65
2022-07-12 14:25:33.664266,-44
2022-07-12 14:25:33.665716,-11
2022-07-12 14:25:33.667178,2
2022-07-12 14:25:33.848442,-16
2022-07-12 14:25:33.850146,-4
2022-07-12 14:25:33.851613,2
2022-07-12 14:25:33.853060,-27
2022-07-12 14:25:33.854528,-41
2022-07-12 14:25:33.855952,-44
2022-07-12 14:25:33.857363,-62
2022-07-12 14:25:33.858816,-51
2022-07-12 14:25:33.860269,-2
2022-07-12 14:25:33.862024,6
2022-07-12 14:25:33.863523,-13
2022-07-12 14:25:33.865012,-37
2022-07-12 14:25:33.866454,-83
2022-07-12 14:25:33.867885,-158
2022-07-12 14:25:33.869341,-205
2022-07-12 14:25:33.870785,-100
2022-07-12 14:25:33.872206,368
2022-07-12 14:25:33.873851,1168
2022-07-12 14:25:33.875293,1389
2022-07-12 14:25:33.876709,466
2022-07-12 14:25:33.878121,-291
2022-07-12 14:25:33.879568,-83
2022-07-12 14:25:33.881022,6
2022-07-12 14:25:33.882452,-254
2022-07-12 14:25:33.885015,-205
2022-07-12 14:25:33.886614,-37
2022-07-12 14:25:33.888570,-44
2022-07-12 14:25:33.890160,-104
2022-07-12 14:25:33.891620,-179
2022-07-12 14:25:33.893042,-233
2022-07-12 14:25:34.029169,-205
2022-07-12 14:25:34.030894,-144
2022-07-12 14:25:34.032341,-123
2022-07-12 14:25:34.033745,-125
2022-07-12 14:25:34.035132,-116
2022-07-12 14:25:34.036515,-107
2022-07-12 14:25:34.037903,-81
2022-07-12 14:25:34.039315,-37
2022-07-12 14:25:34.041052,-20
2022-07-12 14:25:34.043008,-20
2022-07-12 14:25:34.044530,-39
2022-07-12 14:25:34.045962,-62
2022-07-12 14:25:34.047369,-32
2022-07-12 14:25:34.048907,2
2022-07-12 14:25:34.050319,4
2022-07-12 14:25:34.051758,6
2022-07-12 14:25:34.053161,-6
2022-07-12 14:25:34.054731,-6
2022-07-12 14:25:34.056221,13
2022-07-12 14:25:34.057665,32
2022-07-12 14:25:34.059102,41
2022-07-12 14:25:34.060555,6
2022-07-12 14:25:34.062014,-25
2022-07-12 14:25:34.064450,0
2022-07-12 14:25:34.066847,41
2022-07-12 14:25:34.068791,69
2022-07-12 14:25:34.070320,55
2022-07-12 14:25:34.073317,13
2022-07-12 14:25:34.075381,-2
2022-07-12 14:25:34.077038,0
2022-07-12 14:25:34.299093,18
2022-07-12 14:25:34.300816,37
2022-07-12 14:25:34.302308,39
2022-07-12 14:25:34.303724,16
2022-07-12 14:25:34.305072,-30
2022-07-12 14:25:34.306416,-20
2022-07-12 14:25:34.307752,23
2022-07-12 14:25:34.309106,27
2022-07-12 14:25:34.310542,34
2022-07-12 14:25:34.312005,16
2022-07-12 14:25:34.313642,-20
2022-07-12 14:25:34.315018,-4
2022-07-12 14:25:34.316674,30
2022-07-12 14:25:34.318096,44
2022-07-12 14:25:34.319479,46
2022-07-12 14:25:34.320865,34
2022-07-12 14:25:34.322285,32
2022-07-12 14:25:34.323757,48
2022-07-12 14:25:34.325185,76
2022-07-12 14:25:34.326586,93
2022-07-12 14:25:34.327977,88
2022-07-12 14:25:34.329364,79
2022-07-12 14:25:34.330750,67
2022-07-12 14:25:34.332132,60
2022-07-12 14:25:34.333516,48
2022-07-12 14:25:34.336480,44
2022-07-12 14:25:34.338758,58
2022-07-12 14:25:34.340658,25
2022-07-12 14:25:34.342232,-23
2022-07-12 14:25:34.343795,-2
2022-07-12 14:25:34.569056,23
2022-07-12 14:25:34.570807,25
2022-07-12 14:25:34.572191,32
2022-07-12 14:25:34.573554,-2
2022-07-12 14:25:34.574891,-60
2022-07-12 14:25:34.576237,-69
2022-07-12 14:25:34.577578,-30
2022-07-12 14:25:34.578919,-9
2022-07-12 14:25:34.580383,-37
2022-07-12 14:25:34.581785,-69
2022-07-12 14:25:34.583586,-74
2022-07-12 14:25:34.584985,-48
2022-07-12 14:25:34.586344,-23
2022-07-12 14:25:34.587694,-32
2022-07-12 14:25:34.589056,-81
2022-07-12 14:25:34.590452,-142
2022-07-12 14:25:34.591821,-177
2022-07-12 14:25:34.593202,-172
2022-07-12 14:25:34.594585,-160
2022-07-12 14:25:34.596038,-153
2022-07-12 14:25:34.597446,-149
2022-07-12 14:25:34.598821,-158
2022-07-12 14:25:34.600243,-130
2022-07-12 14:25:34.601644,-72
2022-07-12 14:25:34.603030,-53
2022-07-12 14:25:34.604729,-83
2022-07-12 14:25:34.606974,-139
2022-07-12 14:25:34.609013,-153
2022-07-12 14:25:34.610509,-130
2022-07-12 14:25:34.611917,-128
2022-07-12 14:25:34.749122,-116
2022-07-12 14:25:34.750844,-95
2022-07-12 14:25:34.752340,-97
2022-07-12 14:25:34.753757,-100
2022-07-12 14:25:34.755116,-90
2022-07-12 14:25:34.756460,-55
2022-07-12 14:25:34.757797,-27
2022-07-12 14:25:34.759163,-41
2022-07-12 14:25:34.760598,-107
2022-07-12 14:25:34.762073,-181
2022-07-12 14:25:34.763520,-95
2022-07-12 14:25:34.764955,317
2022-07-12 14:25:34.766350,1072
2022-07-12 14:25:34.767722,1424
2022-07-12 14:25:34.769112,613
2022-07-12 14:25:34.770527,-240
2022-07-12 14:25:34.771917,-74
2022-07-12 14:25:34.773443,111
2022-07-12 14:25:34.774846,-125
2022-07-12 14:25:34.776266,-165
2022-07-12 14:25:34.777667,-95
2022-07-12 14:25:34.779053,-153
2022-07-12 14:25:34.780485,-156
2022-07-12 14:25:34.781879,-83
2022-07-12 14:25:34.783250,-60
2022-07-12 14:25:34.786279,-67
2022-07-12 14:25:34.788465,-53
2022-07-12 14:25:34.790339,-72
2022-07-12 14:25:34.791735,-97
2022-07-12 14:25:34.793088,-67
2022-07-12 14:25:34.974193,-30
2022-07-12 14:25:34.975978,-18
2022-07-12 14:25:34.977419,-16
2022-07-12 14:25:34.978834,-11
2022-07-12 14:25:34.980231,16
2022-07-12 14:25:34.981631,39
2022-07-12 14:25:34.983204,53
2022-07-12 14:25:34.984682,39
2022-07-12 14:25:34.986181,-4
2022-07-12 14:25:34.987979,-32
2022-07-12 14:25:34.989429,-69
2022-07-12 14:25:34.990872,-88
2022-07-12 14:25:34.992316,-62
2022-07-12 14:25:34.993745,-83
2022-07-12 14:25:34.995219,-116
2022-07-12 14:25:34.996740,-93
2022-07-12 14:25:34.998274,-62
2022-07-12 14:25:34.999918,-30
2022-07-12 14:25:35.001387,-6
2022-07-12 14:25:35.002787,0
2022-07-12 14:25:35.004180,-2
2022-07-12 14:25:35.005593,-11
2022-07-12 14:25:35.007023,-2
2022-07-12 14:25:35.008442,11
2022-07-12 14:25:35.010350,9
2022-07-12 14:25:35.012706,6
2022-07-12 14:25:35.014819,2
2022-07-12 14:25:35.016407,9
2022-07-12 14:25:35.017860,18
2022-07-12 14:25:35.019262,9
2022-07-12 14:25:35.199104,-11
2022-07-12 14:25:35.200841,-25
2022-07-12 14:25:35.202288,-13
2022-07-12 14:25:35.203700,0
2022-07-12 14:25:35.205275,0
2022-07-12 14:25:35.206738,25
2022-07-12 14:25:35.208139,20
2022-07-12 14:25:35.209697,-20
2022-07-12 14:25:35.211244,-16
2022-07-12 14:25:35.212857,4
2022-07-12 14:25:35.214718,16
2022-07-12 14:25:35.216267,30
2022-07-12 14:25:35.217777,16
2022-07-12 14:25:35.219212,-11
2022-07-12 14:25:35.220752,-9
2022-07-12 14:25:35.222216,9
2022-07-12 14:25:35.223643,23
2022-07-12 14:25:35.225338,30
2022-07-12 14:25:35.226813,41
2022-07-12 14:25:35.228220,41
2022-07-12 14:25:35.229630,48
2022-07-12 14:25:35.231069,65
2022-07-12 14:25:35.232506,69
2022-07-12 14:25:35.234026,83
2022-07-12 14:25:35.236724,93
2022-07-12 14:25:35.238735,88
2022-07-12 14:25:35.240205,102
2022-07-12 14:25:35.241663,90
2022-07-12 14:25:35.243089,60
2022-07-12 14:25:35.244517,58
2022-07-12 14:25:35.424049,53
2022-07-12 14:25:35.425860,32
2022-07-12 14:25:35.427370,0
2022-07-12 14:25:35.428814,-18
2022-07-12 14:25:35.430234,-2
2022-07-12 14:25:35.431653,-9
2022-07-12 14:25:35.433076,-44
2022-07-12 14:25:35.434554,-51
2022-07-12 14:25:35.436022,-32
2022-07-12 14:25:35.437717,-18
2022-07-12 14:25:35.439241,-20
2022-07-12 14:25:35.440670,-23
2022-07-12 14:25:35.442063,-44
2022-07-12 14:25:35.443553,-69
2022-07-12 14:25:35.445103,-88
2022-07-12 14:25:35.446520,-160
2022-07-12 14:25:35.447973,-247
2022-07-12 14:25:35.449548,-258
2022-07-12 14:25:35.451016,-242
2022-07-12 14:25:35.452466,-209
2022-07-12 14:25:35.453891,-160
2022-07-12 14:25:35.455378,-149
2022-07-12 14:25:35.457015,-156
2022-07-12 14:25:35.458812,-160
2022-07-12 14:25:35.461220,-149
2022-07-12 14:25:35.463157,-128
2022-07-12 14:25:35.464667,-135
2022-07-12 14:25:35.466115,-137
2022-07-12 14:25:35.467560,-123
2022-07-12 14:25:35.468960,-116
2022-07-12 14:25:35.782735,-104
2022-07-12 14:25:35.784489,-86
2022-07-12 14:25:35.785873,-67
2022-07-12 14:25:35.787223,-81
2022-07-12 14:25:35.788574,-137
2022-07-12 14:25:35.789920,-209
2022-07-12 14:25:35.791266,-275
2022-07-12 14:25:35.792621,-195
2022-07-12 14:25:35.794022,251
2022-07-12 14:25:35.795440,1114
2022-07-12 14:25:35.797050,1543
2022-07-12 14:25:35.798456,678
2022-07-12 14:25:35.799838,-265
2022-07-12 14:25:35.801220,-132
2022-07-12 14:25:35.802645,30
2022-07-12 14:25:35.804086,-237
2022-07-12 14:25:35.805466,-254
2022-07-12 14:25:35.806831,-137
2022-07-12 14:25:35.808315,-172
2022-07-12 14:25:35.809791,-170
2022-07-12 14:25:35.811230,-102
2022-07-12 14:25:35.812638,-93
2022-07-12 14:25:35.814031,-109
2022-07-12 14:25:35.815433,-81
2022-07-12 14:25:35.816787,-48
2022-07-12 14:25:35.819502,-32
2022-07-12 14:25:35.821697,-2
2022-07-12 14:25:35.823172,9
2022-07-12 14:25:35.824532,13
2022-07-12 14:25:35.825880,27
2022-07-12 14:25:35.874250,46
2022-07-12 14:25:35.876941,76
2022-07-12 14:25:35.878960,90
2022-07-12 14:25:35.880482,88
2022-07-12 14:25:35.881893,65
2022-07-12 14:25:35.883345,9
2022-07-12 14:25:35.884799,-16
2022-07-12 14:25:35.886179,-2
2022-07-12 14:25:35.887554,6
2022-07-12 14:25:35.889141,11
2022-07-12 14:25:35.890611,4
2022-07-12 14:25:35.891983,16
2022-07-12 14:25:35.893427,44
2022-07-12 14:25:35.894819,67
2022-07-12 14:25:35.896223,95
2022-07-12 14:25:35.897807,93
2022-07-12 14:25:35.899309,53
2022-07-12 14:25:35.900864,37
2022-07-12 14:25:35.902361,51
2022-07-12 14:25:35.903806,74
2022-07-12 14:25:35.905257,69
2022-07-12 14:25:35.906805,23
2022-07-12 14:25:35.908273,-30
2022-07-12 14:25:35.910607,-39
2022-07-12 14:25:35.912726,-4
2022-07-12 14:25:35.914808,20
2022-07-12 14:25:35.916278,23
2022-07-12 14:25:35.917654,27
2022-07-12 14:25:35.919015,20
2022-07-12 14:25:35.920368,25
2022-07-12 14:25:36.144141,60
2022-07-12 14:25:36.145918,74
2022-07-12 14:25:36.147292,81
2022-07-12 14:25:36.148692,58
2022-07-12 14:25:36.150037,9
2022-07-12 14:25:36.151374,13
2022-07-12 14:25:36.152709,44
2022-07-12 14:25:36.154061,39
2022-07-12 14:25:36.155495,4
2022-07-12 14:25:36.156883,-48
2022-07-12 14:25:36.158591,-72
2022-07-12 14:25:36.160013,-58
2022-07-12 14:25:36.161384,-27
2022-07-12 14:25:36.162743,-2
2022-07-12 14:25:36.164113,2
2022-07-12 14:25:36.165526,-2
2022-07-12 14:25:36.167043,-6
2022-07-12 14:25:36.168464,6
2022-07-12 14:25:36.170068,41
2022-07-12 14:25:36.171531,55
2022-07-12 14:25:36.172929,60
2022-07-12 14:25:36.174346,58
2022-07-12 14:25:36.175752,44
2022-07-12 14:25:36.177138,67
2022-07-12 14:25:36.178506,93
2022-07-12 14:25:36.180342,102
2022-07-12 14:25:36.182556,114
2022-07-12 14:25:36.184810,97
2022-07-12 14:25:36.186243,93
2022-07-12 14:25:36.187599,116
2022-07-12 14:25:36.369184,121
2022-07-12 14:25:36.370911,107
2022-07-12 14:25:36.372302,69
2022-07-12 14:25:36.373657,18
2022-07-12 14:25:36.375001,0
2022-07-12 14:25:36.376340,13
2022-07-12 14:25:36.377677,41
2022-07-12 14:25:36.379015,51
2022-07-12 14:25:36.380470,55
2022-07-12 14:25:36.381850,48
2022-07-12 14:25:36.383692,9
2022-07-12 14:25:36.385116,4
2022-07-12 14:25:36.386498,37
2022-07-12 14:25:36.387873,46
2022-07-12 14:25:36.389250,25
2022-07-12 14:25:36.390648,-18
2022-07-12 14:25:36.392097,-37
2022-07-12 14:25:36.393611,-30
2022-07-12 14:25:36.395126,-44
2022-07-12 14:25:36.396594,-37
2022-07-12 14:25:36.398064,-39
2022-07-12 14:25:36.399593,-74
2022-07-12 14:25:36.401065,-79
2022-07-12 14:25:36.402534,-72
2022-07-12 14:25:36.404186,-60
2022-07-12 14:25:36.406516,-48
2022-07-12 14:25:36.408882,-76
2022-07-12 14:25:36.410454,-139
2022-07-12 14:25:36.411944,-195
2022-07-12 14:25:36.413402,-188
2022-07-12 14:25:36.684017,-149
2022-07-12 14:25:36.685676,-137
2022-07-12 14:25:36.687163,-139
2022-07-12 14:25:36.688591,-146
2022-07-12 14:25:36.690018,-139
2022-07-12 14:25:36.691449,-128
2022-07-12 14:25:36.692874,-167
2022-07-12 14:25:36.694317,-177
2022-07-12 14:25:36.695760,13
2022-07-12 14:25:36.697354,671
2022-07-12 14:25:36.698821,1466
2022-07-12 14:25:36.700239,1186
2022-07-12 14:25:36.701821,58
2022-07-12 14:25:36.703238,-284
2022-07-12 14:25:36.704674,-30
2022-07-12 14:25:36.706123,-193
2022-07-12 14:25:36.707551,-356
2022-07-12 14:25:36.709082,-209
2022-07-12 14:25:36.710551,-170
2022-07-12 14:25:36.711961,-247
2022-07-12 14:25:36.713366,-209
2022-07-12 14:25:36.714803,-128
2022-07-12 14:25:36.716318,-90
2022-07-12 14:25:36.717758,-53
2022-07-12 14:25:36.720828,-18
2022-07-12 14:25:36.723164,0
2022-07-12 14:25:36.724863,9
2022-07-12 14:25:36.726333,9
2022-07-12 14:25:36.727898,32
2022-07-12 14:25:36.729315,65
2022-07-12 14:25:36.863429,83
2022-07-12 14:25:36.865200,90
2022-07-12 14:25:36.866715,90
2022-07-12 14:25:36.868135,100
2022-07-12 14:25:36.869545,118
2022-07-12 14:25:36.870951,132
2022-07-12 14:25:36.872347,146
2022-07-12 14:25:36.873787,123
2022-07-12 14:25:36.875410,72
2022-07-12 14:25:36.877067,67
2022-07-12 14:25:36.878570,86
2022-07-12 14:25:36.879980,97
2022-07-12 14:25:36.881387,109
2022-07-12 14:25:36.882834,118
2022-07-12 14:25:36.884271,102
2022-07-12 14:25:36.885718,81
2022-07-12 14:25:36.887193,104
2022-07-12 14:25:36.888805,137
2022-07-12 14:25:36.890310,128
2022-07-12 14:25:36.891712,111
2022-07-12 14:25:36.893124,118
2022-07-12 14:25:36.894574,116
2022-07-12 14:25:36.896013,111
2022-07-12 14:25:36.897469,118
2022-07-12 14:25:36.900269,118
2022-07-12 14:25:36.902574,81
2022-07-12 14:25:36.904358,55
2022-07-12 14:25:36.905811,69
2022-07-12 14:25:36.908068,86
2022-07-12 14:25:36.910438,97
2022-07-12 14:25:37.044175,107
2022-07-12 14:25:37.045988,102
2022-07-12 14:25:37.047415,86
2022-07-12 14:25:37.048815,39
2022-07-12 14:25:37.050344,-9
2022-07-12 14:25:37.051806,2
2022-07-12 14:25:37.053248,16
2022-07-12 14:25:37.054715,-6
2022-07-12 14:25:37.056177,-9
2022-07-12 14:25:37.057745,9
2022-07-12 14:25:37.059209,25
2022-07-12 14:25:37.060633,46
2022-07-12 14:25:37.062052,39
2022-07-12 14:25:37.063479,-16
2022-07-12 14:25:37.064946,-37
2022-07-12 14:25:37.066396,-20
2022-07-12 14:25:37.067846,-48
2022-07-12 14:25:37.069525,-58
2022-07-12 14:25:37.071007,-32
2022-07-12 14:25:37.072507,-48
2022-07-12 14:25:37.073966,-65
2022-07-12 14:25:37.075507,-46
2022-07-12 14:25:37.077012,-55
2022-07-12 14:25:37.078459,-67
2022-07-12 14:25:37.080460,-53
2022-07-12 14:25:37.082695,-67
2022-07-12 14:25:37.084827,-86
2022-07-12 14:25:37.086315,-69
2022-07-12 14:25:37.087768,-44
2022-07-12 14:25:37.089201,-32
2022-07-12 14:25:37.269192,-39
2022-07-12 14:25:37.270944,-18
2022-07-12 14:25:37.272334,62
2022-07-12 14:25:37.273689,116
2022-07-12 14:25:37.275032,81
2022-07-12 14:25:37.276373,44
2022-07-12 14:25:37.277712,27
2022-07-12 14:25:37.279073,4
2022-07-12 14:25:37.280507,9
2022-07-12 14:25:37.281982,25
2022-07-12 14:25:37.283742,9
2022-07-12 14:25:37.285193,-25
2022-07-12 14:25:37.286593,-55
2022-07-12 14:25:37.287984,-62
2022-07-12 14:25:37.289385,-48
2022-07-12 14:25:37.290799,-34
2022-07-12 14:25:37.292189,-11
2022-07-12 14:25:37.293572,39
2022-07-12 14:25:37.295036,60
2022-07-12 14:25:37.296486,48
2022-07-12 14:25:37.297883,37
2022-07-12 14:25:37.299323,20
2022-07-12 14:25:37.300739,-13
2022-07-12 14:25:37.302165,-60
2022-07-12 14:25:37.303553,-79
2022-07-12 14:25:37.306289,-74
2022-07-12 14:25:37.307994,-121
2022-07-12 14:25:37.309806,-181
2022-07-12 14:25:37.311254,-125
2022-07-12 14:25:37.312609,-25
2022-07-12 14:25:37.494080,-39
2022-07-12 14:25:37.495837,-90
2022-07-12 14:25:37.497256,-100
2022-07-12 14:25:37.498685,-104
2022-07-12 14:25:37.500086,6
2022-07-12 14:25:37.501474,452
2022-07-12 14:25:37.502877,1137
2022-07-12 14:25:37.504272,1252
2022-07-12 14:25:37.505685,373
2022-07-12 14:25:37.507409,-324
2022-07-12 14:25:37.508863,-130
2022-07-12 14:25:37.510269,-37
2022-07-12 14:25:37.511661,-272
2022-07-12 14:25:37.513048,-256
2022-07-12 14:25:37.514459,-146
2022-07-12 14:25:37.515901,-184
2022-07-12 14:25:37.517287,-184
2022-07-12 14:25:37.518808,-81
2022-07-12 14:25:37.520247,-69
2022-07-12 14:25:37.521641,-116
2022-07-12 14:25:37.523368,-118
2022-07-12 14:25:37.524904,-205
2022-07-12 14:25:37.526379,-268
2022-07-12 14:25:37.527778,-198
2022-07-12 14:25:37.530545,-163
2022-07-12 14:25:37.532643,-151
2022-07-12 14:25:37.534410,-86
2022-07-12 14:25:37.535861,-62
2022-07-12 14:25:37.537243,-90
2022-07-12 14:25:37.538602,-67
2022-07-12 14:25:37.807746,2
2022-07-12 14:25:37.809477,25
2022-07-12 14:25:37.810860,16
2022-07-12 14:25:37.812208,16
2022-07-12 14:25:37.813547,-18
2022-07-12 14:25:37.814886,-44
2022-07-12 14:25:37.816219,-4
2022-07-12 14:25:37.817613,30
2022-07-12 14:25:37.819039,30
2022-07-12 14:25:37.820454,30
2022-07-12 14:25:37.821997,9
2022-07-12 14:25:37.823419,-18
2022-07-12 14:25:37.824805,-18
2022-07-12 14:25:37.826192,-20
2022-07-12 14:25:37.827577,-23
2022-07-12 14:25:37.828962,-16
2022-07-12 14:25:37.830324,-37
2022-07-12 14:25:37.831683,-72
2022-07-12 14:25:37.833105,-58
2022-07-12 14:25:37.834580,-23
2022-07-12 14:25:37.835961,-23
2022-07-12 14:25:37.837356,-39
2022-07-12 14:25:37.838768,-67
2022-07-12 14:25:37.840181,-74
2022-07-12 14:25:37.841571,-27
2022-07-12 14:25:37.844485,13
2022-07-12 14:25:37.846751,23
2022-07-12 14:25:37.848894,9
2022-07-12 14:25:37.850478,-11
2022-07-12 14:25:37.852504,13
2022-07-12 14:25:37.989020,62
2022-07-12 14:25:37.990799,81
2022-07-12 14:25:37.992390,83
2022-07-12 14:25:37.993931,53
2022-07-12 14:25:37.995516,-6
2022-07-12 14:25:37.997070,-20
2022-07-12 14:25:37.998602,25
2022-07-12 14:25:38.000041,60
2022-07-12 14:25:38.001463,53
2022-07-12 14:25:38.002923,23
2022-07-12 14:25:38.004352,-13
2022-07-12 14:25:38.005783,-23
2022-07-12 14:25:38.007247,13
2022-07-12 14:25:38.008589,51
2022-07-12 14:25:38.009983,44
2022-07-12 14:25:38.011357,-23
2022-07-12 14:25:38.012730,-72
2022-07-12 14:25:38.014256,-44
2022-07-12 14:25:38.015634,-11
2022-07-12 14:25:38.017015,4
2022-07-12 14:25:38.018383,16
2022-07-12 14:25:38.019749,6
2022-07-12 14:25:38.021116,13
2022-07-12 14:25:38.022485,34
2022-07-12 14:25:38.024650,16
2022-07-12 14:25:38.026862,-11
2022-07-12 14:25:38.028291,-2
2022-07-12 14:25:38.029644,-6
2022-07-12 14:25:38.030981,-48
2022-07-12 14:25:38.032385,-69
2022-07-12 14:25:38.214088,-44
2022-07-12 14:25:38.215874,-9
2022-07-12 14:25:38.217414,0
2022-07-12 14:25:38.218987,-25
2022-07-12 14:25:38.220490,-46
2022-07-12 14:25:38.221931,-25
2022-07-12 14:25:38.223426,-11
2022-07-12 14:25:38.224874,-4
2022-07-12 14:25:38.226335,11
2022-07-12 14:25:38.228164,-16
2022-07-12 14:25:38.229656,-39
2022-07-12 14:25:38.231071,-4
2022-07-12 14:25:38.232680,30
2022-07-12 14:25:38.234109,48
2022-07-12 14:25:38.235709,30
2022-07-12 14:25:38.237159,-46
2022-07-12 14:25:38.238594,-83
2022-07-12 14:25:38.240176,-69
2022-07-12 14:25:38.241602,-79
2022-07-12 14:25:38.243049,-100
2022-07-12 14:25:38.244489,-104
2022-07-12 14:25:38.246002,-4
2022-07-12 14:25:38.247464,382
2022-07-12 14:25:38.249653,1000
2022-07-12 14:25:38.251252,1121
2022-07-12 14:25:38.253675,286
2022-07-12 14:25:38.255231,-394
2022-07-12 14:25:38.256742,-170
2022-07-12 14:25:38.258672,20
2022-07-12 14:25:38.261075,-158
2022-07-12 14:25:38.484065,-153
2022-07-12 14:25:38.485980,-44
2022-07-12 14:25:38.487481,-79
2022-07-12 14:25:38.488917,-114
2022-07-12 14:25:38.490344,-69
2022-07-12 14:25:38.491767,-41
2022-07-12 14:25:38.493196,-23
2022-07-12 14:25:38.494636,2
2022-07-12 14:25:38.496129,-20
2022-07-12 14:25:38.497905,-51
2022-07-12 14:25:38.499681,-16
2022-07-12 14:25:38.501124,30
2022-07-12 14:25:38.502582,53
2022-07-12 14:25:38.504031,65
2022-07-12 14:25:38.505487,44
2022-07-12 14:25:38.506911,27
2022-07-12 14:25:38.508313,69
2022-07-12 14:25:38.509863,111
2022-07-12 14:25:38.511277,114
2022-07-12 14:25:38.512682,132
2022-07-12 14:25:38.514101,132
2022-07-12 14:25:38.515561,83
2022-07-12 14:25:38.517018,93
2022-07-12 14:25:38.518426,149
2022-07-12 14:25:38.521627,158
2022-07-12 14:25:38.524078,142
2022-07-12 14:25:38.525784,128
2022-07-12 14:25:38.527225,111
2022-07-12 14:25:38.528698,79
2022-07-12 14:25:38.530124,41
2022-07-12 14:25:38.664161,25
2022-07-12 14:25:38.665940,6
2022-07-12 14:25:38.667392,-30
2022-07-12 14:25:38.668814,-74
2022-07-12 14:25:38.670229,-88
2022-07-12 14:25:38.671632,-53
2022-07-12 14:25:38.673035,-23
2022-07-12 14:25:38.674474,-27
2022-07-12 14:25:38.676030,-30
2022-07-12 14:25:38.677685,-20
2022-07-12 14:25:38.679192,-9
2022-07-12 14:25:38.680672,23
2022-07-12 14:25:38.682242,51
2022-07-12 14:25:38.683719,25
2022-07-12 14:25:38.685244,-23
2022-07-12 14:25:38.686733,-16
2022-07-12 14:25:38.688171,16
2022-07-12 14:25:38.689791,25
2022-07-12 14:25:38.691279,34
2022-07-12 14:25:38.692705,20
2022-07-12 14:25:38.694140,-11
2022-07-12 14:25:38.695606,-2
2022-07-12 14:25:38.697044,30
2022-07-12 14:25:38.698621,44
2022-07-12 14:25:38.701646,44
2022-07-12 14:25:38.703954,39
2022-07-12 14:25:38.705835,41
2022-07-12 14:25:38.708175,44
2022-07-12 14:25:38.710439,41
2022-07-12 14:25:38.711971,53
2022-07-12 14:25:38.889207,46
2022-07-12 14:25:38.891038,13
2022-07-12 14:25:38.892528,6
2022-07-12 14:25:38.893974,23
2022-07-12 14:25:38.895370,30
2022-07-12 14:25:38.896732,41
2022-07-12 14:25:38.898096,41
2022-07-12 14:25:38.899470,2
2022-07-12 14:25:38.900992,-13
2022-07-12 14:25:38.902878,6
2022-07-12 14:25:38.904287,13
2022-07-12 14:25:38.905655,30
2022-07-12 14:25:38.907018,30
2022-07-12 14:25:38.908369,-11
2022-07-12 14:25:38.909896,-13
2022-07-12 14:25:38.911313,13
2022-07-12 14:25:38.912745,9
2022-07-12 14:25:38.914248,25
2022-07-12 14:25:38.916081,55
2022-07-12 14:25:38.917537,76
2022-07-12 14:25:38.918895,102
2022-07-12 14:25:38.920281,104
2022-07-12 14:25:38.921693,90
2022-07-12 14:25:38.923077,95
2022-07-12 14:25:38.924939,90
2022-07-12 14:25:38.926773,20
2022-07-12 14:25:38.929088,-74
2022-07-12 14:25:38.930590,-86
2022-07-12 14:25:38.932017,-55
2022-07-12 14:25:38.933354,-48
2022-07-12 14:25:39.114102,-51
2022-07-12 14:25:39.115861,-51
2022-07-12 14:25:39.117246,-67
2022-07-12 14:25:39.118592,-95
2022-07-12 14:25:39.119988,-100
2022-07-12 14:25:39.121343,-118
2022-07-12 14:25:39.122688,-188
2022-07-12 14:25:39.124049,-153
2022-07-12 14:25:39.125491,191
2022-07-12 14:25:39.126922,871
2022-07-12 14:25:39.128659,1252
2022-07-12 14:25:39.130033,573
2022-07-12 14:25:39.131378,-321
2022-07-12 14:25:39.132723,-275
2022-07-12 14:25:39.134089,-53
2022-07-12 14:25:39.135556,-293
2022-07-12 14:25:39.136922,-370
2022-07-12 14:25:39.138486,-240
2022-07-12 14:25:39.139941,-268
2022-07-12 14:25:39.141382,-300
2022-07-12 14:25:39.142762,-237
2022-07-12 14:25:39.144145,-214
2022-07-12 14:25:39.145558,-221
2022-07-12 14:25:39.146951,-191
2022-07-12 14:25:39.148336,-167
2022-07-12 14:25:39.150455,-151
2022-07-12 14:25:39.152541,-118
2022-07-12 14:25:39.154309,-93
2022-07-12 14:25:39.155708,-72
2022-07-12 14:25:39.157894,-62
2022-07-12 14:25:39.383462,-53
2022-07-12 14:25:39.385183,-25
2022-07-12 14:25:39.386674,0
2022-07-12 14:25:39.388086,2
2022-07-12 14:25:39.389438,-16
2022-07-12 14:25:39.390786,-62
2022-07-12 14:25:39.392203,-81
2022-07-12 14:25:39.393580,-48
2022-07-12 14:25:39.395020,-23
2022-07-12 14:25:39.396556,-20
2022-07-12 14:25:39.398059,-13
2022-07-12 14:25:39.399473,-30
2022-07-12 14:25:39.400871,-53
2022-07-12 14:25:39.402222,-32
2022-07-12 14:25:39.403588,-6
2022-07-12 14:25:39.404969,-20
2022-07-12 14:25:39.406333,-34
2022-07-12 14:25:39.407839,-41
2022-07-12 14:25:39.409280,-51
2022-07-12 14:25:39.410714,-39
2022-07-12 14:25:39.412108,-32
2022-07-12 14:25:39.413499,-46
2022-07-12 14:25:39.414909,-48
2022-07-12 14:25:39.416313,-46
2022-07-12 14:25:39.417710,-37
2022-07-12 14:25:39.419718,-11
2022-07-12 14:25:39.421801,4
2022-07-12 14:25:39.423717,11
2022-07-12 14:25:39.425163,18
2022-07-12 14:25:39.426531,23
2022-07-12 14:25:39.565000,18
2022-07-12 14:25:39.567377,-16
2022-07-12 14:25:39.569224,-51
2022-07-12 14:25:39.570784,-46
2022-07-12 14:25:39.572346,-41
2022-07-12 14:25:39.573902,-60
2022-07-12 14:25:39.575467,-74
2022-07-12 14:25:39.576985,-79
2022-07-12 14:25:39.578398,-69
2022-07-12 14:25:39.579976,-65
2022-07-12 14:25:39.581534,-93
2022-07-12 14:25:39.582965,-118
2022-07-12 14:25:39.584385,-100
2022-07-12 14:25:39.585803,-58
2022-07-12 14:25:39.587297,-51
